#ZVView-data-copy:   1-Oct-2024 17:18:26
#=======================================
#
#name:   ENDF/B-VIII.0: W-184(N,EL)W-184-L0
#X.axis: Incident Energy
#Y.axis: Cross Section
#wdata:  2
#ldata:  19007
#data...
#            X            Y
#          MeV        barns
         1e-11      31.5513 
   1.11082e-11      30.0126 
   1.23386e-11      28.5575 
   1.37059e-11      27.1803 
    1.5224e-11      25.8787 
   1.69111e-11      24.6476 
   1.87842e-11       23.485 
   2.08659e-11      22.3863 
    2.3177e-11      21.3496 
   2.57455e-11       20.371 
   2.85971e-11      19.4487 
   3.17662e-11      18.5791 
   3.52847e-11      17.7605 
   3.91949e-11        16.99 
   4.35362e-11      16.2659 
   4.83609e-11      15.5854 
   5.37174e-11      14.9472 
   6.00883e-11      14.3103 
   6.72147e-11      13.7168 
   7.51862e-11      13.1644 
   8.41032e-11      12.6512 
   9.40778e-11      12.1752 
   1.05978e-10       11.708 
   1.19377e-10      11.2788 
   1.34477e-10      10.8849 
   1.52548e-10      10.5045 
   1.73048e-10      10.1594 
   1.97676e-10      9.83093 
   2.25822e-10      9.53636 
   2.59783e-10      9.26027 
   3.00943e-10      9.00466 
   3.51084e-10      8.77084 
   4.12469e-10       8.5596 
   4.91398e-10      8.36392 
   5.89562e-10      8.19273 
   7.22375e-10      8.03469 
   9.03882e-10       7.8936 
    1.15498e-9      7.77146 
    1.52849e-9      7.66402 
     2.1096e-9      7.57248 
     3.1012e-9      7.49548 
    4.99339e-9      7.43337 
    9.31399e-9      7.38606 
    2.31534e-8      7.35305 
    2.52419e-8      7.35117 
       2.53e-8      7.35112 
    1.60786e-7      7.33006 
    3.95708e-5      6.10611 
    5.69596e-5      5.52686 
    6.93022e-5      5.08015 
     7.8615e-5      4.71195 
    8.55089e-5       4.4107 
    9.03961e-5      4.17079 
    9.35538e-5       3.9918 
    9.54325e-5      3.86584 
    9.67789e-5      3.75695 
    9.77287e-5      3.66231 
    9.83381e-5      3.58778 
    9.89234e-5      3.49917 
    9.93723e-5      3.41289 
    9.96845e-5      3.33807 
    9.99381e-5      3.26395 
   0.000100133      3.19545 
   0.000100328      3.11311 
   0.000100524      3.01137 
   0.000100665      2.92057 
   0.000100797      2.81805 
   0.000100885      2.73686 
   0.000100972      2.64223 
   0.000101046      2.55034 
   0.000101119       2.4435 
   0.000101192      2.31851 
   0.000101265      2.17495 
   0.000101326      2.05137 
    0.00010135      2.00787 
   0.000101371      1.97879 
   0.000101386       1.9627 
   0.000101406      1.95487 
   0.000101418       1.9589 
    0.00010143      1.97128 
   0.000101442      1.99376 
   0.000101454      2.02833 
   0.000101466      2.07724 
   0.000101478      2.14303 
   0.000101485      2.19764 
   0.000101496      2.28097 
   0.000101505      2.37187 
   0.000101514      2.47883 
   0.000101523      2.60355 
   0.000101532      2.74776 
   0.000101541      2.91333 
    0.00010155      3.10214 
    0.00010156      3.31619 
   0.000101569      3.55742 
   0.000101578      3.82789 
   0.000101587      4.12953 
   0.000101594      4.39474 
   0.000101602      4.68215 
   0.000101609      4.99277 
   0.000101616      5.32748 
   0.000101624      5.68719 
   0.000101631      6.07266 
   0.000101641      6.62796 
    0.00010165      7.23181 
    0.00010166      7.88535 
    0.00010167      8.60762 
    0.00010168      9.40288 
   0.000101691       10.254 
   0.000101701      11.1601 
   0.000101712      12.1904 
   0.000101724       13.354 
   0.000101739      15.0015 
   0.000101756      16.8569 
   0.000101777      19.3819 
   0.000101833      26.1253 
   0.000101853      28.4792 
   0.000101872      30.4098 
   0.000101891      32.2636 
   0.000101907      33.5429 
   0.000101921      34.5408 
   0.000101938      35.4538 
   0.000101954      36.0547 
   0.000101968      36.3777 
   0.000101979      36.4706 
   0.000101993      36.4045 
   0.000102009      36.0919 
   0.000102024      35.5393 
   0.000102041      34.7114 
   0.000102056      33.7646 
   0.000102075      32.3368 
   0.000102094      30.6792 
   0.000102114      28.8416 
   0.000102156      24.6212 
   0.000102185       21.683 
   0.000102204      19.9028 
   0.000102222      18.2184 
   0.000102241      16.6499 
   0.000102259      15.2282 
   0.000102271      14.3537 
   0.000102283      13.5388 
   0.000102296      12.7833 
   0.000102308      12.0862 
    0.00010232      11.4457 
   0.000102332      10.8598 
   0.000102344      10.3258 
   0.000102357      9.84068 
   0.000102369       9.4014 
   0.000102381      9.00466 
   0.000102393      8.64714 
   0.000102411      8.17722 
    0.00010243      7.77737 
   0.000102446      7.47973 
   0.000102465      7.16644 
   0.000102485      6.90235 
   0.000102504      6.67877 
   0.000102524      6.48834 
   0.000102553      6.25168 
   0.000102582      6.05972 
   0.000102616      5.87668 
   0.000102641      5.76597 
    0.00010269      5.58046 
   0.000102738      5.42923 
   0.000102814      5.24018 
   0.000102894      5.08028 
   0.000102975      4.94996 
   0.000103099        4.789 
   0.000103246      4.64254 
   0.000103392      4.52726 
   0.000103587      4.40609 
   0.000103782      4.31033 
    0.00010406      4.20282 
   0.000104338      4.11797 
   0.000104777      4.01323 
   0.000105285      3.91983 
    0.00010587      3.83385 
   0.000106865      3.71793 
   0.000108192      3.59408 
   0.000110365      3.42439 
   0.000114751      3.12221 
   0.000122143      2.62184 
   0.000126248      2.32949 
   0.000130478      2.01249 
   0.000133906      1.74214 
   0.000137449       1.4507 
   0.000141297      1.12244 
   0.000146275     0.691514 
   0.000148039     0.542705 
   0.000149375     0.433824 
   0.000150204     0.368889 
   0.000151012     0.308018 
   0.000151653     0.261729 
   0.000152202     0.223874 
   0.000152642     0.194904 
   0.000153037     0.169945 
   0.000153433     0.146139 
   0.000153762     0.127234 
   0.000154077     0.110066 
   0.000154335    0.0967553 
   0.000154592    0.0841029 
   0.000154798    0.0744805 
   0.000155016    0.0647786 
   0.000155183    0.0577307 
    0.00015535    0.0510179 
   0.000155517    0.0446571 
   0.000155666    0.0392863 
   0.000155785    0.0352051 
   0.000155904    0.0313202 
   0.000156018    0.0278158 
   0.000156137    0.0243279 
   0.000156232    0.0216895 
   0.000156328    0.0191893 
   0.000156409    0.0171661 
   0.000156494    0.0151805 
   0.000156578    0.0133098 
   0.000156645    0.0118976 
   0.000156705    0.0107242 
   0.000156764   0.00960989 
   0.000156823   0.00855541 
   0.000156882   0.00756158 
   0.000156935   0.00672609 
   0.000156987   0.00594016 
    0.00015703   0.00534746 
   0.000157068    0.0048417 
   0.000157101    0.0044143 
   0.000157143   0.00390966 
   0.000157177   0.00352983 
   0.000157215   0.00312808 
   0.000157245   0.00283447 
   0.000157274   0.00255747 
   0.000157304   0.00229722 
   0.000157325   0.00212162 
   0.000157346   0.00195466 
   0.000157367   0.00179638 
   0.000157388   0.00164681 
   0.000157414   0.00147887 
    0.00015743   0.00137396 
   0.000157447   0.00127471 
   0.000157469   0.00115472 
   0.000157489   0.00105274 
   0.000157509   0.00095889 
   0.000157526  0.000886901 
   0.000157543  0.000820604 
   0.000157558  0.000763874 
   0.000157572   0.00071922 
   0.000157585  0.000678239 
   0.000157598  0.000643913 
   0.000157609  0.000614043 
   0.000157621  0.000587014 
   0.000157632  0.000563915 
   0.000157643  0.000543404 
   0.000157654  0.000525485 
   0.000157666  0.000510167 
   0.000157677  0.000496886 
   0.000157688  0.000487353 
   0.000157701  0.000478691 
   0.000157715  0.000473812 
   0.000157726  0.000472643 
   0.000157735  0.000473726 
   0.000157748  0.000477966 
   0.000157755   0.00048198 
   0.000157768  0.000492344 
   0.000157782  0.000506546 
   0.000157795    0.0005246 
   0.000157805  0.000540674 
   0.000157816  0.000561086 
   0.000157829  0.000586653 
   0.000157842  0.000618272 
   0.000157853  0.000647602 
   0.000157867  0.000686383 
    0.00015788  0.000729089 
   0.000157893   0.00077573 
   0.000157907   0.00082632 
    0.00015792  0.000880864 
   0.000157937  0.000954637 
   0.000157954   0.00103463 
   0.000157973   0.00113285 
   0.000157988   0.00121979 
   0.000158004   0.00131221 
    0.00015802   0.00141013 
   0.000158036   0.00152119 
   0.000158054   0.00164667 
   0.000158072   0.00177941 
   0.000158099   0.00199223 
   0.000158121    0.0021822 
   0.000158143    0.0023837 
   0.000158166   0.00259679 
   0.000158195   0.00289122 
   0.000158215   0.00310665 
   0.000158242   0.00340872 
   0.000158269   0.00372786 
   0.000158303   0.00416548 
   0.000158327   0.00447829 
   0.000158358   0.00491608 
   0.000158389   0.00537769 
   0.000158432   0.00604253 
   0.000158476   0.00679053 
   0.000158521   0.00758842 
   0.000158566   0.00843671 
   0.000158612   0.00938222 
   0.000158666    0.0105324 
    0.00015872    0.0117576 
   0.000158773    0.0130587 
   0.000158831     0.014555 
   0.000158885    0.0160174 
   0.000158938    0.0175585 
    0.00015901    0.0197373 
   0.000159081    0.0220599 
   0.000159144    0.0242118 
   0.000159211    0.0266433 
   0.000159278    0.0292067 
   0.000159367    0.0328335 
   0.000159456    0.0367037 
   0.000159547    0.0408987 
   0.000159638    0.0453565 
   0.000159729    0.0500826 
    0.00015982    0.0550822 
   0.000159937    0.0619169 
   0.000160054    0.0692249 
   0.000160171    0.0770189 
   0.000160287    0.0853122 
   0.000160424    0.0956373 
    0.00016056     0.106684 
   0.000160696     0.118477 
   0.000160833     0.131037 
    0.00016096     0.143475 
   0.000161087     0.156621 
   0.000161214     0.170504 
   0.000161384     0.190196 
    0.00016156     0.212037 
   0.000161705     0.231244 
    0.00016185     0.251545 
   0.000162044     0.280398 
   0.000162238     0.311376 
   0.000162397     0.338487 
   0.000162563      0.36843 
   0.000162729     0.400125 
   0.000162895     0.433663 
   0.000163117      0.48141 
   0.000163308     0.525499 
   0.000163511       0.5755 
   0.000163715     0.628775 
   0.000163919     0.685503 
   0.000164122     0.745872 
   0.000164326     0.810137 
    0.00016453      0.87852 
   0.000164733     0.951165 
   0.000164937      1.02827 
    0.00016514      1.11009 
   0.000165344      1.19686 
    0.00016558      1.30379 
   0.000165816      1.41821 
   0.000166051      1.54071 
   0.000166287      1.67174 
   0.000166523      1.81182 
   0.000166745      1.95219 
    0.00016703      2.14678 
   0.000167316      2.35773 
   0.000167602       2.5865 
   0.000167831      2.78348 
   0.000168088      3.02156 
   0.000168345      3.28018 
   0.000168998      3.98853 
   0.000169134      4.15176 
   0.000169326      4.40655 
   0.000169646      4.86736 
   0.000169966      5.36701 
   0.000170252       5.8527 
   0.000170521      6.34724 
    0.00017079      6.88221 
   0.000171059      7.46238 
   0.000171328      8.09178 
   0.000171595      8.76749 
   0.000171855       9.4848 
   0.000172116      10.2629 
   0.000172377      11.1078 
   0.000172637      12.0263 
   0.000172898       13.026 
   0.000173159      14.1155 
   0.000173419      15.3043 
    0.00017368      16.6035 
   0.000173941      18.0255 
   0.000174201      19.5844 
   0.000174443      21.1639 
   0.000174674      22.8172 
   0.000174906      24.6195 
   0.000175138      26.5875 
   0.000175369      28.7402 
   0.000175601      31.0992 
   0.000175833      33.6897 
   0.000176064      36.5407 
   0.000176296      39.6838 
   0.000176528      43.1539 
   0.000176759      46.9981 
   0.000176968      50.8231 
   0.000177176      55.0386 
   0.000177385      59.6949 
   0.000177594      64.8512 
   0.000177733      68.6004 
   0.000177933      74.5106 
   0.000178119      80.5484 
   0.000178304      87.2217 
   0.000178489      94.6177 
   0.000178675      102.839 
   0.000178798      108.837 
   0.000178968      117.846 
    0.00017913      127.372 
   0.000179293      137.931 
   0.000179455      149.669 
   0.000179563      158.235 
   0.000179671      167.461 
   0.000179818       181.16 
   0.000179957      195.549 
   0.000180096      211.505 
   0.000180235      229.253 
   0.000180327      242.207 
    0.00018042      256.163 
   0.000180509      270.574 
   0.000180636      293.235 
   0.000180721        309.8 
   0.000180806       327.67 
   0.000180891      346.982 
   0.000180976      367.885 
   0.000181061       390.55 
   0.000181146      415.169 
    0.00018125      448.392 
   0.000181355      485.387 
   0.000181424      512.426 
   0.000181494      541.592 
   0.000181563      573.104 
   0.000181633       607.21 
   0.000181702      644.191 
   0.000181764      679.734 
   0.000181826      718.054 
   0.000181888      759.437 
   0.000181949      804.203 
   0.000182011      852.718 
   0.000182073      905.392 
   0.000182135       962.69 
   0.000182196      1025.14 
   0.000182271      1107.75 
   0.000182345      1199.86 
   0.000182394      1267.25 
   0.000182444      1339.97 
   0.000182493      1418.56 
   0.000182542      1503.62 
   0.000182592      1595.83 
   0.000182657      1728.98 
     0.0001827      1826.26 
   0.000182743      1931.08 
   0.000182786      2044.17 
    0.00018283       2166.3 
   0.000182873      2298.31 
   0.000182916      2441.14 
   0.000182956      2584.33 
   0.000183012      2801.03 
   0.000183068      3041.38 
   0.000183123      3307.99 
   0.000183179      3603.58 
   0.000183234      3930.85 
    0.00018329      4292.37 
   0.000183346      4690.28 
   0.000183401      5126.07 
   0.000183457      5600.18 
   0.000183512       6111.6 
   0.000183562      6595.17 
   0.000183624      7232.14 
   0.000183814      9280.08 
   0.000183885      9996.14 
   0.000183938      10478.7 
   0.000183991      10895.7 
   0.000184045      11231.3 
   0.000184091      11446.2 
   0.000184133      11575.7 
   0.000184181      11638.1 
   0.000184186      11639.6 
   0.000184228      11613.8 
   0.000184269      11521.4 
   0.000184311      11365.1 
   0.000184353      11149.5 
   0.000184408      10780.1 
   0.000184466      10312.3 
   0.000184524      9780.47 
   0.000184601      9008.65 
   0.000184754      7432.16 
   0.000184828      6707.38 
   0.000184884      6196.79 
    0.00018494      5719.15 
   0.000184995      5276.44 
   0.000185051      4869.05 
   0.000185106       4496.2 
   0.000185162      4156.33 
   0.000185218      3847.32 
   0.000185273      3566.86 
   0.000185332      3299.08 
   0.000185375      3118.72 
   0.000185418      2951.52 
   0.000185462      2796.45 
   0.000185527      2584.47 
   0.000185591       2394.6 
   0.000185656      2224.17 
   0.000185712      2091.77 
   0.000185768      1970.63 
   0.000185823      1859.58 
   0.000185879      1757.59 
   0.000185934      1663.74 
    0.00018599      1577.24 
   0.000186046      1497.35 
   0.000186101      1423.45 
   0.000186163      1347.67 
   0.000186225      1277.89 
   0.000186287      1213.52 
   0.000186379      1125.93 
   0.000186472      1047.77 
   0.000186565      977.737 
   0.000186639       926.58 
   0.000186726      871.817 
   0.000186814      821.966 
   0.000186901      776.453 
   0.000186988      734.793 
   0.000187075       696.57 
   0.000187163      661.421 
   0.000187294      613.773 
   0.000187413       574.84 
   0.000187533      539.721 
   0.000187653      507.924 
   0.000187772      479.038 
   0.000187892      452.718 
   0.000188012      428.668 
   0.000188132      406.634 
   0.000188251      386.395 
   0.000188406      362.622 
    0.00018856      341.166 
   0.000188715      321.731 
   0.000188869      304.067 
   0.000189024      287.961 
   0.000189178      273.232 
   0.000189332      259.724 
   0.000189564      241.464 
   0.000189796      225.274 
   0.000190028      210.847 
   0.000190259      197.931 
   0.000190491      186.319 
   0.000190723      175.845 
   0.000190927      167.423 
   0.000191234      156.027 
   0.000191541      145.908 
   0.000191848      136.882 
   0.000192155      128.801 
   0.000192466      121.466 
   0.000192785        114.7 
   0.000193103      108.574 
   0.000193422      103.014 
   0.000193634      99.5884 
   0.000194059      93.3318 
   0.000194406      88.7314 
   0.000194754      84.5363 
   0.000195217      79.4911 
   0.000195681      74.9865 
   0.000196144      70.9447 
   0.000196607      67.3018 
   0.000197071      64.0046 
   0.000197534      61.0089 
   0.000197998      58.2771 
   0.000198693      54.6064 
   0.000199388      51.3718 
   0.000200083      48.5035 
   0.000200778      45.9453 
   0.000201473      43.6567 
   0.000202168      41.5947 
   0.000202863      39.7239 
    0.00020379      37.4915 
   0.000204717      35.5137 
   0.000205643      33.7511 
    0.00020657      32.1714 
   0.000207497      30.7486 
   0.000208424      29.4609 
   0.000209814      27.7449 
   0.000211204       26.245 
   0.000212594      24.9237 
   0.000213984      23.7516 
   0.000215374      22.7051 
   0.000217228      21.4728 
   0.000219081      20.3982 
   0.000221244      19.2981 
   0.000222479      18.7345 
   0.000224951      17.7242 
   0.000227422       16.843 
   0.000229893       16.065 
   0.000233292      15.1245 
   0.000238862      13.7542 
   0.000240261      13.3606 
   0.000241025      13.0755 
   0.000241441      12.8599 
   0.000241788      12.6014 
   0.000241997      12.3718 
   0.000242124      12.1789 
    0.00024224      11.9535 
   0.000242483      11.3941 
   0.000242558      11.2982 
    0.00024258      11.2913 
   0.000242626        11.32 
   0.000242672      11.4199 
   0.000242719      11.6043 
   0.000242753      11.8033 
   0.000242788      12.0561 
   0.000242833      12.4555 
   0.000242886      13.0375 
   0.000242965      14.0254 
   0.000243052      15.1196 
   0.000243094      15.5889 
   0.000243149      16.1085 
   0.000243186       16.372 
   0.000243228      16.5824 
    0.00024327      16.6987 
   0.000243307      16.7282 
   0.000243348      16.6884 
   0.000243418      16.4852 
    0.00024351      16.0561 
   0.000243651      15.3476 
   0.000243734      15.0004 
   0.000243816      14.7209 
   0.000243929      14.4338 
   0.000244045      14.2214 
   0.000244265      13.9473 
   0.000244542      13.7197 
   0.000244889      13.5212 
   0.000245537      13.2649 
   0.000246463      13.0075 
   0.000248222      12.6459 
   0.000251277      12.1567 
   0.000254702      11.6957 
   0.000258774      11.2142 
   0.000264537      10.6139 
   0.000271231      9.99424 
   0.000285732      8.74401 
   0.000290028      8.33432 
   0.000292391      8.08068 
   0.000295046      7.75481 
   0.000296819          7.5 
   0.000298452      7.22599 
   0.000300017      6.91169 
   0.000301059      6.66255 
   0.000302102      6.36913 
   0.000302884      6.11047 
   0.000303666      5.80823 
   0.000304187      5.57562 
   0.000304709      5.31164 
    0.00030523      5.00906 
   0.000305578      4.78126 
   0.000305925      4.52851 
   0.000306273      4.24645 
   0.000306568      3.97978 
   0.000306811      3.73883 
   0.000307055      3.47606 
   0.000307298      3.18877 
   0.000307507      2.92091 
    0.00030768      2.68124 
   0.000307854      2.42586 
   0.000308028      2.15448 
   0.000308167       1.9262 
   0.000308349      1.61327 
   0.000308688      1.01359 
   0.000308775      0.86507 
   0.000308832     0.772678 
   0.000308875     0.704853 
   0.000308918     0.640722 
   0.000308951     0.595624 
   0.000308984     0.553632 
    0.00030901     0.522648 
   0.000309036      0.49434 
   0.000309062     0.469082 
   0.000309081     0.452396 
   0.000309105     0.434954 
   0.000309123     0.424527 
    0.00030914       0.4162 
   0.000309157     0.410169 
   0.000309177     0.406397 
   0.000309188     0.405798 
   0.000309203     0.406906 
    0.00030922     0.411176 
