#ZVView-data-copy:   1-Oct-2024 00:17:07
#=======================================
#
#name:   ENDF/B-VIII.0: CA-43(N,EL)CA-43-L0
#X.axis: Incident Energy
#Y.axis: Cross Section
#wdata:  2
#ldata:  3284
#data...
#            X            Y
#          MeV        barns
         1e-11      36.3614 
   1.10304e-11      34.6413 
   1.21669e-11      33.0045 
   1.34206e-11      31.4471 
   1.48034e-11      29.9653 
   1.63287e-11      28.5556 
   1.80111e-11      27.2145 
   1.98669e-11      25.9388 
   2.19139e-11      24.7255 
   2.41719e-11      23.5717 
   2.66625e-11      22.4745 
   2.94097e-11      21.4313 
     3.244e-11      20.4396 
   3.57825e-11      19.4971 
   3.94694e-11      18.6013 
   4.35362e-11      17.7503 
   4.83609e-11      16.8855 
   5.37174e-11      16.0677 
   5.96704e-11      15.2937 
   6.62796e-11      14.5623 
   7.36246e-11      13.8705 
   8.17795e-11      13.2172 
   9.08421e-11         12.6 
   1.00904e-10      12.0176 
   1.12086e-10      11.4679 
   1.24501e-10      10.9499 
   1.38299e-10      10.4615 
   1.53616e-10      10.0019 
    1.7064e-10       9.5693 
    1.8954e-10      9.16284 
   2.10545e-10      8.78093 
   2.33866e-10      8.42282 
   2.61602e-10      8.06553 
   2.92627e-10      7.73262 
   3.27333e-10      7.42289 
   3.66154e-10      7.13519 
   4.09579e-10      6.86842 
   4.61387e-10      6.60668 
   5.19722e-10      6.36625 
   5.85462e-10      6.14575 
   6.64136e-10      5.93286 
   7.53383e-10      5.73979 
   8.60608e-10      5.55607 
   9.83144e-10      5.39139 
    1.13099e-9      5.23711 
    1.31019e-9      5.09431 
    1.52849e-9      4.96373 
    1.79573e-9      4.84579 
    2.13936e-9      4.73656 
    2.58484e-9      4.63765 
    3.16698e-9      4.55007 
    3.96272e-9      4.47188 
    5.09931e-9      4.40247 
    6.79594e-9      4.34206 
    9.44539e-9      4.29111 
    1.39824e-8       4.2487 
    2.28313e-8      4.21446 
    2.52419e-8      4.20928 
       2.53e-8      4.20917 
    5.06179e-8      4.18466 
    1.46795e-7      4.16824 
    1.65689e-6      4.15359 
    5.42353e-5      3.92533 
   0.000111587      3.70782 
   0.000172276      3.50751 
   0.000234466      3.32986 
   0.000299617       3.1705 
   0.000361988      3.04153 
    0.00042496      2.93344 
   0.000485443      2.85102 
   0.000541453      2.79473 
   0.000591535      2.76212 
   0.000638901      2.74797 
   0.000646778      2.74755 
   0.000688883      2.75693 
   0.000728589      2.78175 
   0.000765186      2.82502 
    0.00079248      2.87004 
   0.000825208      2.94397 
   0.000854602       3.0294 
   0.000876663      3.10948 
   0.000901574      3.21945 
   0.000922337       3.3281 
   0.000941948      3.44885 
   0.000961928      3.59296 
   0.000976397      3.71169 
   0.000990172      3.83784 
    0.00100414      3.98049 
    0.00101831      4.14227 
    0.00103268      4.32637 
    0.00104724      4.53664 
    0.00106202      4.77779 
      0.001077      5.05559 
    0.00109086      5.34473 
    0.00110468       5.6728 
    0.00111593      5.97373 
    0.00112719      6.30611 
    0.00113733      6.63876 
    0.00114671      6.97642 
    0.00115572      7.33365 
    0.00116473      7.72354 
    0.00117373      8.15366 
    0.00118124      8.54257 
    0.00119025       9.0556 
    0.00119926      9.62311 
    0.00120826      10.2526 
    0.00121727      10.9528 
    0.00122628       11.734 
    0.00123304      12.3805 
    0.00123979      13.0854 
    0.00124655      13.8558 
     0.0012533      14.6994 
    0.00126006      15.6255 
    0.00126682      16.6445 
    0.00127357      17.7689 
    0.00128033      19.0129 
    0.00128708      20.3932 
    0.00129384      21.9296 
    0.00130059      23.6457 
     0.0013051       24.903 
     0.0013096      26.2619 
    0.00131411      27.7332 
    0.00131861       29.329 
    0.00132311      31.0633 
    0.00132762      32.9519 
    0.00133212      35.0127 
    0.00133663      37.2665 
    0.00134113      39.7371 
    0.00134563       42.452 
    0.00135014      45.4427 
    0.00135464      48.7465 
    0.00135915      52.4061 
    0.00136365      56.4723 
     0.0013674      60.2138 
    0.00137041      63.4661 
    0.00137341      66.9736 
    0.00137641      70.7624 
    0.00137941      74.8615 
    0.00138242      79.3037 
    0.00138542      84.1258 
    0.00138842      89.3695 
    0.00139142      95.0818 
    0.00139443      101.316 
    0.00139743      108.132 
    0.00140043      115.599 
    0.00140343      123.795 
    0.00140644      132.807 
    0.00140944      142.737 
    0.00141244      153.696 
    0.00141526      165.015 
    0.00141788       176.54 
    0.00142051      189.207 
    0.00142314      203.105 
    0.00142577       218.35 
    0.00142839      235.081 
    0.00143102      253.449 
    0.00143365      273.609 
    0.00143627      295.724 
     0.0014389      319.949 
    0.00144153      346.427 
    0.00144416      375.273 
    0.00144678      406.551 
    0.00144941      440.251 
    0.00145204      476.253 
    0.00145598      533.924 
    0.00146386      654.401 
    0.00146649       692.13 
    0.00146912       726.19 
    0.00147109      748.325 
    0.00147306      766.779 
    0.00147503      780.951 
      0.001477      790.385 
    0.00147891      794.765 
    0.00147955      795.115 
     0.0014812      793.359 
    0.00148352      784.861 
    0.00148552      772.354 
    0.00148752      755.453 
    0.00148951       734.73 
    0.00149218      702.321 
    0.00149501      664.091 
    0.00150402      534.099 
    0.00150824      476.522 
    0.00151096       442.03 
    0.00151369      409.816 
    0.00151641      379.908 
    0.00151894      354.271 
    0.00152147      330.603 
    0.00152401      308.796 
    0.00152654      288.757 
    0.00152917      269.693 
    0.00153179      252.241 
    0.00153442      236.317 
    0.00153705      221.702 
    0.00154005      206.439 
    0.00154305      192.599 
    0.00154606      180.032 
    0.00154906      168.603 
    0.00155206       158.19 
    0.00155507      148.687 
    0.00155807      139.997 
    0.00156107      132.037 
    0.00156407      124.731 
    0.00156708      118.014 
    0.00157008      111.827 
    0.00157308      106.118 
    0.00157758      98.3516 
    0.00158209      91.4222 
    0.00158659      85.2189 
     0.0015911      79.6445 
     0.0015956        74.62 
     0.0016001      70.0755 
    0.00160461      65.9535 
    0.00160911      62.2032 
    0.00161362      58.7823 
    0.00161812      55.6531 
      0.001623      52.5558 
    0.00162863      49.3165 
    0.00163426      46.4099 
    0.00163914      44.0961 
    0.00164514       41.496 
    0.00165115      39.1403 
    0.00165715      36.9992 
    0.00166316      35.0473 
    0.00166916      33.2627 
    0.00167517      31.6269 
    0.00168117      30.1234 
    0.00168718      28.7384 
    0.00169619      26.8534 
     0.0017052      25.1786 
     0.0017142      23.6739 
    0.00172321      22.3249 
    0.00173222      21.1033 
    0.00174123      19.9997 
    0.00175023      18.9936 
    0.00176224      17.7896 
    0.00177163      16.9438 
    0.00178176      16.1096 
    0.00179152      15.3806 
    0.00180128      14.7052 
    0.00181329      13.9503 
    0.00182793      13.1284 
    0.00184219      12.4094 
    0.00185626      11.7761 
    0.00187034      11.2017 
    0.00188535      10.6498 
    0.00190036      10.1506 
    0.00191538      9.69764 
    0.00193039      9.28523 
     0.0019454      8.90848 
    0.00196042      8.56324 
    0.00198294      8.09881 
    0.00200545      7.68346 
    0.00202797      7.31649 
    0.00205049      6.98509 
    0.00208052      6.59572 
    0.00211055      6.25493 
    0.00214057       5.9548 
     0.0021706      5.68871 
    0.00220062      5.45135 
    0.00223065      5.23871 
    0.00226068      5.04736 
     0.0022907      4.87446 
    0.00233574      4.64603 
    0.00237703      4.46038 
    0.00242957      4.25618 
    0.00248399      4.07443 
    0.00254029      3.91271 
    0.00259659      3.77339 
    0.00266177       3.6374 
    0.00271857      3.53337 
    0.00279364      3.41998 
     0.0028687      3.32857 
    0.00294377      3.25719 
    0.00301883       3.2051 
     0.0030939      3.17321 
     0.0031502      3.16516 
    0.00319711      3.17328 
    0.00323464      3.19703 
    0.00325576      3.22425 
    0.00326983      3.25402 
    0.00328348      3.30099 
    0.00329276      3.35372 
    0.00329809        3.399 
    0.00330236      3.44902 
    0.00330556      3.49935 
    0.00330849      3.56057 
    0.00331116      3.63563 
    0.00331304      3.70539 
    0.00331467      3.78294 
    0.00331629      3.88383 
    0.00331757       3.9869 
    0.00331867      4.10092 
     0.0033194      4.19544 
    0.00332006      4.29964 
    0.00332067      4.41387 
    0.00332127      4.55459 
    0.00332172      4.68442 
    0.00332218      4.84348 
    0.00332252      4.99298 
    0.00332287      5.17409 
     0.0033231      5.31724 
    0.00332334      5.48258 
    0.00332357      5.67455 
     0.0033238      5.89836 
    0.00332403      6.16003 
    0.00332425      6.44823 
    0.00332447      6.78266 
    0.00332469      7.17023 
    0.00332491      7.61813 
    0.00332506      7.95388 
     0.0033252      8.32183 
    0.00332535      8.72409 
     0.0033255      9.16251 
    0.00332564      9.63883 
    0.00332579      10.1544 
    0.00332601      11.0039 
    0.00332623      11.9459 
    0.00332637      12.6251 
    0.00332661      13.8167 
    0.00332685      15.1049 
    0.00332709      16.4756 
    0.00332756      19.3276 
    0.00332806      22.3867 
    0.00332829      23.7253 
    0.00332853      24.9525 
    0.00332876      26.0291 
    0.00332897       26.839 
    0.00332916      27.4121 
    0.00332933      27.8106 
     0.0033295      28.0528 
     0.0033297      28.1706 
    0.00332972      28.1715 
    0.00332986      28.1188 
    0.00333002      27.9408 
    0.00333017      27.6587 
    0.00333034      27.2072 
    0.00333054      26.4984 
    0.00333066      26.0077 
    0.00333089      24.8685 
     0.0033311      23.6871 
    0.00333133      22.2366 
    0.00333161      20.3611 
     0.0033323      15.5761 
    0.00333256      13.8558 
    0.00333278      12.4489 
    0.00333295      11.4533 
    0.00333312       10.515 
    0.00333328        9.638 
    0.00333339      9.08873 
    0.00333354      8.40981 
    0.00333369      7.78103 
    0.00333383      7.20192 
    0.00333398      6.67154 
    0.00333412      6.18833 
    0.00333427      5.75046 
    0.00333442      5.35565 
    0.00333456      5.00146 
    0.00333471      4.68519 
    0.00333486      4.40416 
      0.003335      4.15556 
    0.00333515      3.93664 
    0.00333529      3.74467 
    0.00333544      3.57704 
    0.00333559      3.43127 
    0.00333573      3.30501 
    0.00333592      3.17127 
     0.0033361       3.0607 
    0.00333628      2.96979 
    0.00333646      2.89547 
    0.00333665      2.83505 
    0.00333692      2.76548 
     0.0033372      2.71561 
    0.00333747       2.6808 
    0.00333787      2.64762 
    0.00333828      2.62976 
    0.00333895      2.61972 
    0.00333909      2.61957 
    0.00334009      2.62857 
    0.00334644      2.75175 
    0.00335014      2.80787 
    0.00335569      2.86979 
     0.0033627      2.92396 
    0.00337226      2.97407 
     0.0033831      3.01334 
    0.00340604      3.06903 
    0.00345449        3.148 
    0.00354094       3.2818 
    0.00359146      3.37864 
    0.00364198      3.49809 
    0.00367987      3.60784 
    0.00371776      3.73674 
    0.00374302      3.83725 
    0.00376828      3.95108 
    0.00379354       4.0805 
     0.0038188      4.22809 
    0.00384406      4.39746 
    0.00386932      4.59319 
    0.00389458      4.82067 
    0.00391353      5.01704 
    0.00392931      5.19873 
    0.00394826      5.44518 
     0.0039672      5.72703 
    0.00398615       6.0516 
    0.00400004      6.32242 
     0.0040133      6.61053 
    0.00402656      6.93418 
    0.00404109      7.33463 
    0.00405119      7.64725 
     0.0040613      7.99217 
     0.0040714      8.37423 
     0.0040815      8.79803 
    0.00409161      9.27149 
    0.00410171      9.80419 
    0.00411182      10.4055 
    0.00411939      10.9092 
    0.00412697      11.4651 
    0.00413455      12.0813 
    0.00414213      12.7669 
    0.00414971      13.5334 
    0.00415728      14.3942 
    0.00416486      15.3665 
    0.00416991      16.0864 
    0.00417497      16.8722 
    0.00418002      17.7325 
    0.00418507      18.6771 
    0.00419012      19.7172 
    0.00419464      20.7349 
    0.00420061      22.2391 
    0.00420458      23.3545 
    0.00420856       24.573 
    0.00421267      25.9537 
    0.00421677      27.4731 
    0.00422088      29.1463 
    0.00422498      31.0039 
    0.00422902      33.0414 
    0.00423306      35.3164 
     0.0042361      37.2003 
    0.00423913      39.2572 
    0.00424216      41.5086 
    0.00424519      43.9795 
    0.00424822      46.6988 
    0.00425125      49.7001 
    0.00425428      53.0226 
    0.00425731      56.7122 
    0.00426034      60.8227 
    0.00426338      65.4171 
    0.00426641      70.5697 
    0.00426843      74.3573 
    0.00427045       78.461 
    0.00427247      82.9137 
    0.00427436      87.4375 
    0.00427702      94.4038 
    0.00427878      99.5032 
    0.00428055      105.005 
    0.00428232      110.946 
    0.00428409      117.364 
    0.00428586      124.299 
    0.00428763      131.795 
     0.0042899      142.323 
    0.00429217      153.936 
    0.00429445      166.716 
    0.00429672      180.722 
    0.00429899      195.982 
    0.00430133      212.938 
     0.0043037      231.313 
    0.00430843      270.372 
     0.0043108      289.916 
    0.00431301      307.205 
    0.00431491      320.626 
     0.0043168      332.114 
     0.0043187      341.036 
    0.00431996      345.276 
    0.00432122      347.997 
    0.00432248      349.109 
    0.00432381      348.489 
    0.00432514      346.033 
    0.00432646      341.791 
    0.00432779      335.866 
    0.00432956      325.604 
    0.00433114      314.499 
     0.0043335      295.261 
    0.00433666       266.79 
     0.0043414      223.113 
    0.00434408       199.81 
    0.00434598      184.433 
    0.00434787      170.056 
    0.00434977      156.715 
    0.00435166      144.415 
    0.00435355      133.137 
    0.00435545      122.832 
    0.00435734      113.431 
    0.00435924      104.866 
    0.00436113      97.0714 
    0.00436315      89.5287 
    0.00436467      84.3428 
    0.00436618      79.5239 
     0.0043677      75.0449 
    0.00436922      70.8814 
    0.00437073      67.0095 
      0.004373      61.6988 
    0.00437452      58.4596 
    0.00437629      54.9558 
    0.00437806      51.7229 
    0.00437982      48.7363 
    0.00438159       45.974 
    0.00438336      43.4159 
    0.00438513      41.0441 
     0.0043869      38.8424 
    0.00438867      36.7961 
    0.00439069      34.6309 
    0.00439271      32.6339 
    0.00439473      30.7892 
    0.00439675      29.0827 
    0.00439877      27.5018 
    0.00440079      26.0354 
    0.00440382      24.0284 
    0.00440597      22.7325 
    0.00440824      21.4621 
    0.00441052      20.2868 
    0.00441279       19.198 
    0.00441506      18.1878 
    0.00441847      16.8049 
    0.00442188      15.5635 
    0.00442507      14.5149 
    0.00442815      13.5923 
    0.00443123      12.7491 
    0.00443431      11.9783 
    0.00443739      11.2726 
    0.00444059      10.5978 
    0.00444405      9.93124 
    0.00444751      9.32285 
    0.00445096      8.76652 
    0.00445442      8.25657 
    0.00445788      7.78836 
     0.0044623      7.24493 
    0.00446672      6.75593 
    0.00447114      6.31483 
    0.00447556      5.91611 
    0.00447935      5.60506 
    0.00448314      5.31993 
    0.00448819      4.97254 
    0.00449324      4.66039 
    0.00449829      4.37965 
    0.00450335      4.12675 
     0.0045084      3.89863 
    0.00451345      3.69263 
     0.0045185      3.50641 
    0.00452355      3.33795 
    0.00452861      3.18549 
    0.00453366      3.04746 
    0.00453871       2.9225 
    0.00454629      2.75694 
    0.00455387      2.61463 
    0.00456144      2.49258 
    0.00456902      2.38837 
     0.0045766      2.29987 
    0.00458336      2.23289 
    0.00459012      2.17709 
    0.00459463      2.14382 
    0.00460364      2.08945 
    0.00461266      2.04882 
    0.00462166      2.02061 
    0.00463066      2.00362 
    0.00463965      1.99695 
    0.00464865      1.99986 
    0.00465765      2.01178 
    0.00466665      2.03226 
    0.00468042      2.07898 
    0.00469474      2.14818 
    0.00470482      2.20842 
    0.00471491      2.27853 
      0.004725      2.35868 
    0.00473509       2.4492 
    0.00474517       2.5505 
    0.00475526      2.66316 
    0.00476535      2.78786 
    0.00477543      2.92545 
    0.00478552      3.07691 
    0.00479561      3.24342 
    0.00480569      3.42635 
    0.00481578      3.62727 
    0.00482587      3.84804 
    0.00483595      4.09078 
    0.00484604      4.35797 
    0.00485613      4.65247 
    0.00486622      4.97764 
     0.0048763      5.33734 
    0.00488639      5.73615 
    0.00489648      6.17815 
    0.00490404      6.54217 
    0.00491161      6.93879 
    0.00491949      7.38929 
      0.004928      7.92443 
    0.00493651      8.51549 
    0.00494414      9.09892 
    0.00495133      9.70141 
    0.00495851      10.3615 
    0.00496551      11.0642 
    0.00497251      11.8362 
    0.00497944       12.679 
    0.00498625      13.5911 
    0.00499306      14.5946 
    0.00500037      15.7925 
    0.00500542      16.6998 
    0.00501046      17.6813 
     0.0050155      18.7447 
    0.00502055      19.8989 
    0.00502559      21.1539 
    0.00503063      22.5212 
    0.00503568      24.0137 
    0.00504072      25.6462 
    0.00504576      27.4357 
    0.00505081      29.4015 
    0.00505585      31.5659 
    0.00506089      33.9544 
    0.00506594      36.5966 
    0.00506972       38.765 
     0.0050735      41.1115 
    0.00507729      43.6541 
    0.00508107      46.4131 
    0.00508485      49.4112 
    0.00508863      52.6734 
    0.00509242      56.2278 
     0.0050962      60.1056 
    0.00509998      64.3412 
    0.00510376      68.9727 
    0.00510755      74.0419 
    0.00511133      79.5944 
    0.00511511      85.6794 
     0.0051189       92.349 
    0.00512268      99.6579 
    0.00512646      107.661 
    0.00513024      116.413 
    0.00513403      125.961 
    0.00513781      136.345 
    0.00514159      147.586 
    0.00514537      159.681 
    0.00514916      172.588 
     0.0051542      190.895 
     0.0051663      237.088 
     0.0051711       254.31 
    0.00517469      265.949 
    0.00517763      274.229 
    0.00518111      282.199 
    0.00518372      286.677 
    0.00518633      289.742 
    0.00518894      291.311 
    0.00518981       291.49 
     0.0051921      291.142 
    0.00519554      288.448 
    0.00519899      283.306 
    0.00520243      275.975 
    0.00520587      266.812 
    0.00520817      259.933 
    0.00521346      242.397 
     0.0052267       195.36 
    0.00523187      177.941 
    0.00523691      162.132 
     0.0052407      151.136 
    0.00524448      140.902 
    0.00524826      131.422 
    0.00525204       122.67 
    0.00525583      114.611 
    0.00525961        107.2 
    0.00526339      100.391 
    0.00526717      94.1378 
    0.00527096      88.3943 
    0.00527474      83.1168 
    0.00527852      78.2643 
     0.0052823      73.7987 
    0.00528609      69.6851 
    0.00528987      65.8914 
    0.00529491       61.281 
    0.00529996      57.1263 
      0.005305      53.3735 
    0.00531004      49.9758 
    0.00531509      46.8921 
    0.00532013      44.0869 
    0.00532517       41.529 
