#ZVView-data-copy:  30-Jul-2024 17:05:29
#=======================================
#
#name:   ENDF/B-VIII.0: GE-73(N,EL)GE-73-L0
#X.axis: Incident Energy
#Y.axis: Cross Section
#wdata:  2
#ldata:  7108
#data...
#            X            Y
#          MeV        barns
         1e-11      32.2083 
   1.10304e-11      30.6967 
   1.21669e-11       29.259 
   1.34206e-11      27.8916 
   1.48034e-11      26.5913 
   1.63287e-11      25.3548 
   1.80111e-11      24.1793 
   1.98669e-11       23.062 
   2.19139e-11           22 
   2.41719e-11      20.9909 
   2.66625e-11      20.0322 
   2.96172e-11      19.0581 
   3.28977e-11       18.137 
   3.65434e-11      17.2654 
    4.0591e-11      16.4418 
   4.50892e-11       15.663 
   5.00834e-11      14.9276 
   5.56336e-11      14.2329 
   6.17957e-11      13.5776 
   6.86438e-11      12.9592 
    7.6247e-11      12.3766 
   8.46966e-11      11.8274 
   9.40778e-11      11.3108 
   1.04504e-10      10.8246 
   1.16078e-10       10.368 
   1.28942e-10       9.9391 
   1.44235e-10      9.51112 
   1.61341e-10        9.112 
   1.80476e-10      8.74033 
    2.0188e-10      8.39477 
   2.25822e-10        8.074 
   2.54374e-10      7.75905 
    2.8655e-10      7.46912 
   3.22779e-10      7.20309 
   3.63607e-10      6.95937 
   4.12469e-10      6.72435 
   4.67897e-10      6.51147 
    5.3449e-10      6.30918 
   6.14869e-10      6.11917 
   7.07336e-10      5.95079 
   8.19448e-10      5.79514 
    9.5598e-10      5.65308 
    1.13099e-9      5.51982 
    1.34742e-9      5.40209 
    1.62799e-9      5.29559 
    2.00871e-9      5.19842 
    2.53102e-9      5.11258 
    3.27994e-9      5.03716 
     4.4327e-9      4.97084 
    6.29181e-9      4.91504 
    9.57865e-9      4.86929 
     1.6312e-8      4.83291 
    2.52419e-8      4.81429 
       2.53e-8      4.81421 
    6.60549e-8      4.79159 
    4.40876e-7       4.7603 
    4.94161e-6      4.52934 
    1.01671e-5      4.29845 
    1.55876e-5      4.09334 
    2.09195e-5      3.92242 
    2.61757e-5      3.78231 
    3.09678e-5       3.6802 
    3.56249e-5      3.60735 
    3.95708e-5      3.57015 
    4.25922e-5      3.55935 
     4.6005e-5       3.5707 
    4.89974e-5      3.60626 
    5.14611e-5      3.65689 
      5.367e-5      3.72375 
    5.55817e-5      3.80005 
    5.71611e-5      3.87895 
    5.83764e-5      3.94999 
    6.00352e-5       4.0659 
    6.17412e-5      4.20931 
    6.30508e-5       4.3407 
    6.43914e-5      4.49725 
    6.57572e-5       4.6823 
    6.71553e-5      4.90428 
    6.85798e-5      5.16947 
    6.95474e-5      5.37614 
    7.05286e-5      5.61074 
    7.15236e-5      5.87787 
    7.25327e-5      6.18342 
     7.3556e-5      6.53475 
    7.45937e-5      6.94047 
     7.5383e-5      7.28642 
    7.61797e-5      7.67364 
    7.69839e-5      8.10848 
    7.77956e-5      8.59849 
    7.86188e-5      9.15314 
    7.94497e-5      9.78395 
    8.02884e-5      10.5056 
    8.08528e-5      11.0452 
    8.14211e-5      11.6383 
    8.19934e-5      12.2919 
    8.25698e-5      13.0142 
    8.31502e-5      13.8146 
    8.37347e-5      14.7044 
    8.43233e-5      15.6968 
    8.49161e-5      16.8079 
    8.53637e-5       17.731 
    8.58114e-5      18.7355 
    8.62654e-5      19.8467 
    8.67194e-5      21.0623 
    8.71755e-5      22.4018 
    8.76359e-5      23.8893 
    8.80963e-5      25.5308 
     8.8561e-5      27.3655 
    8.90279e-5      29.4143 
    8.94948e-5      31.6997 
    8.99683e-5      34.2927 
     9.0284e-5      36.1934 
    9.05996e-5      38.2612 
    9.09175e-5      40.5251 
    9.12376e-5      43.0056 
    9.15577e-5      45.7206 
    9.18778e-5       48.698 
    9.22002e-5      51.9853 
    9.25248e-5      55.6235 
    9.28494e-5      59.6386 
    9.31741e-5      64.0997 
    9.34187e-5      67.7929 
    9.36656e-5      71.8431 
    9.39125e-5      76.2542 
    9.41594e-5      81.0695 
    9.44063e-5      86.3388 
    9.46532e-5      92.1196 
    9.49036e-5      98.5731 
    9.51539e-5      105.703 
    9.54043e-5      113.606 
    9.56547e-5      122.394 
    9.59051e-5      132.203 
    9.61495e-5      142.915 
    9.63104e-5      150.669 
    9.64713e-5      159.048 
    9.66322e-5      168.119 
    9.67931e-5       177.96 
    9.69541e-5      188.658 
     9.7115e-5      200.314 
    9.72759e-5      213.044 
    9.74688e-5        229.9 
    9.76616e-5      248.751 
    9.77902e-5      262.578 
    9.79187e-5      277.542 
    9.80473e-5      293.773 
    9.81759e-5      311.423 
    9.83044e-5       330.66 
     9.8433e-5      351.676 
    9.85616e-5      374.686 
    9.86902e-5      399.944 
    9.88187e-5      427.743 
    9.89473e-5      458.428 
    9.90416e-5      482.993 
    9.91444e-5      512.022 
    9.92473e-5       543.64 
    9.93501e-5      578.158 
    9.94444e-5      612.649 
    9.95301e-5      646.637 
    9.96158e-5      683.409 
    9.97015e-5      723.262 
    9.97872e-5      766.539 
     9.9873e-5      813.625 
    9.99587e-5      864.961 
   0.000100044      921.047 
    0.00010013      982.458 
   0.000100216      1049.85 
   0.000100302      1123.97 
   0.000100387       1205.7 
   0.000100473      1296.01 
   0.000100559      1396.06 
   0.000100623      1478.26 
   0.000100687      1567.29 
   0.000100751      1663.85 
   0.000100816      1768.68 
    0.00010088      1882.63 
   0.000100944       2006.6 
   0.000101009       2141.6 
   0.000101073      2288.69 
   0.000101137      2449.01 
   0.000101201      2623.75 
   0.000101266      2814.14 
    0.00010133      3021.38 
   0.000101394      3246.63 
   0.000101459      3490.89 
   0.000101523      3754.98 
   0.000101587      4039.33 
   0.000101651       4343.9 
   0.000101716      4667.99 
   0.000101801      5127.73 
    0.00010193      5862.12 
   0.000102101      6861.02 
   0.000102187      7329.67 
   0.000102273      7749.27 
   0.000102337      8018.28 
   0.000102401      8238.25 
   0.000102466      8401.56 
   0.000102534      8506.78 
   0.000102593      8537.05 
    0.00010265      8512.72 
   0.000102707      8437.13 
   0.000102769      8297.31 
   0.000102843      8061.66 
   0.000102917      7760.97 
   0.000102991      7408.58 
   0.000103089      6882.84 
   0.000103344      5432.71 
   0.000103447      4879.27 
   0.000103524      4491.23 
   0.000103601      4129.88 
   0.000103679      3796.52 
   0.000103756      3491.16 
   0.000103833       3212.9 
    0.00010391      2960.28 
   0.000103961      2805.21 
   0.000104021       2636.9 
   0.000104081      2481.27 
   0.000104141      2337.38 
   0.000104201      2204.32 
   0.000104261      2081.23 
   0.000104321       1967.3 
   0.000104381      1861.76 
   0.000104441      1763.92 
    0.00010451      1660.69 
   0.000104578      1565.79 
   0.000104647      1478.42 
   0.000104716      1397.86 
   0.000104784      1323.47 
   0.000104853      1254.68 
   0.000104956      1160.86 
   0.000105033      1097.09 
   0.000105118      1032.09 
   0.000105204       972.62 
    0.00010529      918.086 
   0.000105376      867.974 
   0.000105461      821.833 
   0.000105547      779.266 
   0.000105633      739.922 
   0.000105725      700.869 
   0.000105823      662.437 
   0.000105922      627.105 
   0.000106021      594.551 
   0.000106119      564.492 
   0.000106267       523.54 
   0.000106415       486.93 
   0.000106533      460.468 
    0.00010667      432.358 
   0.000106807      406.808 
   0.000106944      383.518 
   0.000107081      362.224 
   0.000107218      342.695 
   0.000107356      324.741 
   0.000107493      308.194 
   0.000107647      291.088 
   0.000107818       273.75 
    0.00010799      257.967 
   0.000108161      243.559 
   0.000108333      230.371 
   0.000108504      218.268 
   0.000108675      207.134 
   0.000108847      196.868 
   0.000109029      186.832 
   0.000109221      177.076 
   0.000109413      168.102 
   0.000109605      159.828 
   0.000109893      148.576 
   0.000110181      138.536 
   0.000110469      129.538 
   0.000110762      121.333 
   0.000111054      113.932 
   0.000111346      107.235 
   0.000111638      101.158 
   0.000111931      95.6306 
   0.000112226      90.5294 
   0.000112423       87.351 
   0.000112818      81.5116 
   0.000113213      76.2815 
   0.000113609       71.581 
   0.000114009      67.2886 
    0.00011441      63.4151 
   0.000114811      59.9079 
   0.000115211      56.7069 
   0.000115618      53.7403 
   0.000116024      51.0266 
    0.00011643      48.5374 
   0.000117043       45.157 
   0.000117661      42.1344 
   0.000118279      39.4445 
   0.000118903      37.0175 
    0.00011953        34.83 
   0.000120157      32.8595 
   0.000120792      31.0536 
   0.000121428      29.4165 
   0.000122067      27.9206 
   0.000122711      26.5436 
   0.000123571      24.8885 
   0.000124443      23.3918 
   0.000125314      22.0518 
   0.000126198      20.8307 
   0.000127082      19.7347 
   0.000127979      18.7223 
   0.000128875      17.8027 
   0.000129784      16.9532 
   0.000130693       16.177 
   0.000132076      15.1182 
   0.000133472      14.1752 
   0.000134881      13.3317 
   0.000136303      12.5724 
   0.000137746      11.8827 
   0.000139201      11.2566 
   0.000140671      10.6854 
   0.000142154      10.1621 
    0.00014416      9.52698 
   0.000146194      8.95405 
   0.000148256      8.43395 
   0.000150348      7.95998 
   0.000152469      7.52225 
    0.00015462      7.11789 
   0.000156801      6.74029 
   0.000159013      6.38531 
   0.000162394       5.8887 
   0.000165839      5.42561 
   0.000169365       4.9835 
   0.000175398      4.26891 
   0.000180382      3.68403 
   0.000183572        3.294 
   0.000186149      2.95966 
   0.000188075      2.69348 
   0.000189401       2.4993 
   0.000191064      2.24119 
    0.00019241      2.01917 
   0.000193916      1.75717 
   0.000195671      1.44478 
   0.000196194      1.35553 
   0.000196718      1.27257 
   0.000197111      1.21727 
   0.000197373      1.18528 
   0.000197609      1.16095 
   0.000197818      1.14377 
   0.000198028      1.13174 
   0.000198237      1.12603 
   0.000198342      1.12598 
   0.000198486      1.12946 
    0.00019863      1.13763 
   0.000198774      1.15125 
   0.000198919       1.1712 
   0.000199063      1.19848 
   0.000199207       1.2343 
   0.000199315      1.26761 
   0.000199423       1.3072 
   0.000199547       1.3616 
   0.000199652      1.41572 
   0.000199757      1.47846 
   0.000199861      1.55093 
   0.000199966      1.63443 
   0.000200071      1.73046 
    0.00020015      1.81174 
   0.000200228      1.90188 
   0.000200307      2.00184 
   0.000200398      2.13227 
   0.000200464      2.23556 
   0.000200529      2.34818 
   0.000200595      2.47101 
    0.00020066      2.60504 
   0.000200726      2.75138 
   0.000200791      2.91127 
   0.000200857      3.08608 
   0.000200917      3.26143 
   0.000200977      3.45212 
   0.000201038      3.65966 
   0.000201098      3.88578 
   0.000201158      4.13245 
   0.000201218      4.40184 
   0.000201279      4.69646 
   0.000201339      5.01914 
   0.000201389      5.30918 
   0.000201438      5.62264 
   0.000201488      5.96188 
   0.000201538      6.32948 
   0.000201588      6.72844 
   0.000201637      7.16209 
   0.000201687      7.63426 
   0.000201737      8.14931 
   0.000201779      8.61998 
   0.000201821      9.12799 
   0.000201863      9.67724 
   0.000201905      10.2721 
   0.000201946      10.9175 
   0.000201988      11.6193 
    0.00020203      12.3839 
   0.000202072      13.2191 
   0.000202109      14.0147 
   0.000202146      14.8779 
   0.000202182      15.8165 
   0.000202219      16.8397 
   0.000202256      17.9579 
   0.000202292      19.1833 
   0.000202329      20.5301 
   0.000202366      22.0147 
   0.000202397      23.4115 
   0.000202428      24.9377 
    0.00020246      26.6092 
   0.000202491      28.4443 
   0.000202523      30.4639 
   0.000202554      32.6915 
   0.000202586      35.1542 
   0.000202617      37.8824 
   0.000202646      40.6462 
   0.000202675      43.6916 
   0.000202703      47.0521 
   0.000202732      50.7637 
   0.000202761      54.8672 
   0.000202783       58.228 
   0.000202804      61.8535 
   0.000202826      65.7652 
   0.000202847       69.985 
   0.000202873      75.4315 
   0.000202899      81.3879 
   0.000202925      87.8981 
    0.00020295      95.0071 
   0.000202976      102.762 
   0.000203002      111.211 
   0.000203027      120.403 
   0.000203053      130.384 
   0.000203075      139.605 
   0.000203097      149.471 
   0.000203119      160.009 
   0.000203141      171.245 
   0.000203163      183.203 
   0.000203196      202.538 
   0.000203229      223.597 
   0.000203257       243.05 
   0.000203285      263.802 
   0.000203314      285.847 
   0.000203351      317.199 
   0.000203394      355.491 
   0.000203438      397.285 
   0.000203497      456.288 
    0.00020364      606.086 
    0.00020369      657.085 
   0.000203736      700.936 
   0.000203778      737.377 
    0.00020382      769.681 
   0.000203862       797.07 
   0.000203905      819.337 
   0.000203938      832.083 
   0.000203971      840.821 
   0.000204006      845.608 
   0.000204025      846.166 
   0.000204061      843.401 
   0.000204093      836.971 
   0.000204132      823.851 
   0.000204171      805.409 
    0.00020421      782.783 
   0.000204235      765.638 
   0.000204285      726.686 
   0.000204329      688.421 
   0.000204373      647.288 
   0.000204486      535.146 
   0.000204557       464.98 
   0.000204599      425.384 
   0.000204641      387.607 
   0.000204683      351.991 
   0.000204716      325.621 
   0.000204752      298.537 
   0.000204788      273.379 
   0.000204825      250.159 
   0.000204861       228.85 
   0.000204897      209.395 
   0.000204931      192.447 
   0.000204957       180.75 
   0.000204983       169.88 
   0.000205009      159.794 
   0.000205035      150.448 
   0.000205061      141.798 
   0.000205087      133.799 
   0.000205122      124.073 
   0.000205156      115.326 
   0.000205185      108.659 
   0.000205221      101.314 
   0.000205256      94.7221 
   0.000205291      88.8002 
   0.000205327      83.4719 
   0.000205362      78.6691 
   0.000205397      74.3299 
   0.000205433      70.4005 
   0.000205468      66.8326 
   0.000205504      63.5839 
   0.000205551      59.6852 
    0.00020559       56.765 
   0.000205629      54.1042 
   0.000205682      50.9061 
   0.000205734      48.0508 
   0.000205786      45.4873 
   0.000205839      43.1737 
   0.000205891      41.0757 
   0.000205944      39.1648 
   0.000206004      37.1681 
   0.000206072      35.1341 
    0.00020614      33.3035 
   0.000206208      31.6478 
   0.000206276      30.1435 
   0.000206344      28.7714 
   0.000206446       26.926 
   0.000206515      25.8184 
   0.000206619       24.278 
   0.000206724      22.9077 
   0.000206829      21.6817 
   0.000206934      20.5791 
   0.000207038      19.5826 
   0.000207143      18.6781 
   0.000207248      17.8538 
   0.000207353      17.0999 
   0.000207484      16.2437 
   0.000207615      15.4707 
   0.000207746      14.7699 
   0.000207942      13.8336 
   0.000208139      13.0133 
   0.000208335      12.2891 
   0.000208558      11.5651 
   0.000208793      10.8916 
   0.000209029      10.2976 
   0.000209265      9.77012 
   0.000209501       9.2985 
   0.000209789      8.78442 
   0.000210053      8.36742 
   0.000210317      7.99248 
    0.00021058      7.65379 
   0.000210975      7.20349 
   0.000211371       6.8114 
   0.000211766      6.46806 
   0.000212228      6.11914 
    0.00021269      5.81806 
   0.000213152       5.5585 
   0.000213614      5.33742 
   0.000214076      5.15264 
   0.000214454      5.02761 
   0.000214901      4.91043 
   0.000215348      4.82928 
   0.000215683      4.79405 
   0.000216019      4.78296 
   0.000216305      4.79515 
   0.000216591      4.83015 
   0.000216877      4.89105 
   0.000217164      4.98164 
    0.00021745      5.10674 
   0.000217655      5.22052 
   0.000217873       5.3677 
   0.000218091       5.5453 
   0.000218309      5.75794 
   0.000218527      6.01114 
   0.000218691      6.23163 
   0.000218854      6.48194 
   0.000219018      6.76592 
   0.000219181      7.08804 
   0.000219352      7.46918 
   0.000219535      7.94033 
   0.000219657      8.29443 
   0.000219779      8.68476 
   0.000219901      9.11549 
   0.000220023      9.59136 
   0.000220146      10.1178 
   0.000220268      10.7012 
   0.000220405      11.4345 
   0.000220543      12.2613 
   0.000220634      12.8714 
   0.000220726      13.5344 
   0.000220817      14.2559 
   0.000220909      15.0423 
   0.000221001      15.9008 
   0.000221118      17.1241 
   0.000221197      18.0236 
   0.000221275      18.9984 
   0.000221354      20.0565 
   0.000221432       21.207 
   0.000221511      22.4602 
    0.00022159       23.828 
   0.000221664      25.2373 
   0.000221733      26.6797 
   0.000221803      28.2475 
   0.000221873      29.9547 
   0.000221943      31.8179 
   0.000222013      33.8556 
   0.000222082      36.0897 
   0.000222152      38.5453 
   0.000222213      40.8987 
   0.000222266       43.086 
   0.000222318      45.4476 
    0.00022237      48.0021 
   0.000222423      50.7708 
   0.000222475      53.7781 
   0.000222527      57.0518 
    0.00022258       60.624 
    0.00022263      64.3619 
   0.000222678      68.2607 
   0.000222726      72.5143 
   0.000222774      77.1668 
   0.000222822      82.2691 
    0.00022287      87.8803 
   0.000222918      94.0686 
   0.000222966      100.914 
    0.00022301      107.784 
   0.000223049      114.563 
   0.000223088      121.973 
   0.000223127      130.091 
   0.000223167          139 
   0.000223206      148.793 
   0.000223245      159.576 
   0.000223284      171.465 
    0.00022332      183.217 
   0.000223351      194.584 
   0.000223383        206.9 
   0.000223414      220.245 
   0.000223445      234.706 
   0.000223477      250.374 
   0.000223508      267.344 
    0.00022354      285.712 
   0.000223569      304.434 
   0.000223597       323.35 
   0.000223625      343.593 
   0.000223653      365.231 
   0.000223695      400.445 
   0.000223737      439.145 
   0.000223779        481.5 
   0.000223815      521.665 
   0.000223852      564.778 
   0.000223889      610.854 
   0.000223937      676.831 
   0.000223974      729.593 
   0.000224016      793.108 
   0.000224079      894.025 
   0.000224163      1036.33 
   0.000224309       1289.6 
   0.000224379      1402.18 
   0.000224431      1479.03 
   0.000224471      1530.97 
   0.000224514      1581.83 
   0.000224558      1624.49 
   0.000224601      1658.06 
   0.000224642      1680.71 
   0.000224681       1693.7 
   0.000224721      1698.59 
   0.000224763      1694.15 
   0.000224805      1680.12 
   0.000224842      1659.67 
   0.000224889      1624.05 
   0.000224936      1578.27 
   0.000224984      1523.53 
   0.000225049      1435.21 
   0.000225112      1340.33 
   0.000225223      1158.44 
   0.000225321       997.64 
   0.000225398      877.078 
   0.000225454       794.79 
    0.00022551      718.046 
   0.000225552      664.453 
   0.000225593      614.394 
   0.000225628      575.399 
   0.000225663      538.862 
   0.000225698      504.737 
   0.000225733      472.953 
   0.000225768      443.422 
   0.000225803      416.043 
   0.000225838      390.703 
   0.000225873      367.285 
   0.000225913      342.571 
   0.000225953      320.051 
   0.000225993      299.541 
   0.000226033      280.865 
   0.000226073      263.855 
   0.000226113      248.353 
   0.000226154      234.211 
   0.000226194      221.296 
   0.000226237      208.625 
    0.00022628      197.094 
   0.000226323      186.576 
   0.000226366      176.963 
   0.000226424      165.383 
   0.000226482      155.037 
   0.000226539      145.755 
   0.000226597      137.393 
