#ZVView-data-copy:  10-Jan-2025 23:23:13
#=======================================
#
#name:   ENDF/B-VIII.0: NA-23(N,EL)NA-23-L0
#X.axis: Incident Energy
#Y.axis: Cross Section
#wdata:  2
#ldata:  2081
#data...
#            X            Y
#          MeV        barns
         1e-11      40.2968 
   1.10304e-11      38.3802 
   1.21669e-11       36.556 
   1.34206e-11      34.8197 
   1.48034e-11      33.1671 
   1.63287e-11      31.5943 
   1.80111e-11      30.0974 
   1.98669e-11      28.6729 
   2.19139e-11      27.3174 
   2.41719e-11      26.0275 
   2.66625e-11      24.8002 
   2.94097e-11      23.6326 
     3.244e-11      22.5218 
   3.57825e-11      21.4651 
   3.94694e-11        20.46 
   4.35362e-11      19.5041 
   4.80221e-11      18.5951 
   5.29701e-11      17.7308 
    5.8428e-11      16.9091 
   6.44483e-11      16.1281 
   7.10888e-11      15.3858 
   7.84136e-11      14.6804 
   8.64931e-11      14.0103 
   9.60781e-11      13.3295 
    1.0672e-10      12.6857 
   1.18547e-10      12.0766 
   1.31677e-10       11.501 
    1.4627e-10      10.9567 
   1.62471e-10      10.4429 
   1.80476e-10      9.95747 
   2.00465e-10      9.49961 
   2.22681e-10      9.06755 
   2.47345e-10       8.6605 
   2.74756e-10       8.2769 
   3.05188e-10      7.91601 
   3.39009e-10      7.57645 
   3.76558e-10      7.25755 
   4.18288e-10      6.95805 
   4.67897e-10      6.65921 
   5.23389e-10      6.38055 
   5.85462e-10      6.12108 
   6.54897e-10      5.87986 
   7.32567e-10      5.65597 
   8.25188e-10      5.43615 
   9.29566e-10      5.23381 
    1.04709e-9      5.04815 
     1.1878e-9      4.86855 
    1.34742e-9      4.70538 
    1.52849e-9      4.55757 
    1.74612e-9      4.41702 
    2.00871e-9      4.28499 
    2.32697e-9       4.1624 
    2.71467e-9      4.04987 
    3.18932e-9      3.94777 
     3.7732e-9      3.85616 
    4.52695e-9      3.77175 
    5.50789e-9      3.69545 
    6.84355e-9      3.62554 
    8.68389e-9      3.56295 
    1.13322e-8      3.50652 
    1.53158e-8      3.45556 
    2.14369e-8      3.41104 
    2.52419e-8      3.39359 
       2.53e-8      3.39336 
    3.82488e-8      3.35987 
    6.93729e-8      3.32367 
    1.24948e-7      3.29144 
    2.21915e-7      3.26355 
     1.0076e-6      3.19376 
    1.02842e-5      3.13045 
    7.78681e-5      3.14105 
   0.000150426      3.15462 
   0.000401072      3.22264 
   0.000577316      3.28797 
    0.00059788      3.29771 
   0.000602097      3.29502 
   0.000707336       3.3681 
   0.000796806      3.45211 
    0.00087275      3.53348 
   0.000949283      3.63265 
    0.00103936      3.77787 
    0.00110697      3.91273 
    0.00117039      4.06143 
    0.00122923      4.22243 
    0.00130301        4.458 
    0.00134949       4.6338 
    0.00140741      4.88041 
    0.00145518      5.11396 
    0.00150151      5.38061 
    0.00154124      5.63127 
    0.00156808      5.81509 
    0.00160571      6.10643 
    0.00164335      6.44446 
    0.00168098      6.83998 
    0.00171861      7.28647 
    0.00173743      7.53627 
    0.00176566      7.95667 
    0.00179388      8.41389 
    0.00182211      8.91885 
    0.00184444      9.35581 
    0.00185736      9.61732 
    0.00188356      10.1962 
    0.00190678      10.7512 
    0.00193407      11.4709 
    0.00195947      12.2043 
    0.00198205      12.9215 
    0.00200463      13.6993 
    0.00202721      14.5533 
    0.00204603      15.3301 
    0.00206458      16.1435 
    0.00208634      17.1861 
     0.0021099      18.4343 
    0.00213214      19.7288 
    0.00215517      21.2189 
    0.00217775        22.83 
     0.0021928      24.0053 
    0.00220786      25.2674 
    0.00222291      26.6246 
    0.00223796      28.0858 
    0.00225302      29.6611 
    0.00226807      31.3616 
    0.00228312      33.1998 
    0.00229818      35.1898 
    0.00231323      37.3472 
    0.00232829      39.6896 
    0.00234334      42.2369 
    0.00235839      45.0111 
    0.00237345      48.0373 
     0.0023885      51.3436 
    0.00240355      54.9619 
    0.00241861      58.9277 
    0.00243366      63.2813 
    0.00244871      68.0681 
    0.00246377      73.3388 
    0.00247882      79.1504 
    0.00249387      85.5662 
    0.00250893      92.6441 
    0.00252022      98.4405 
    0.00253151        104.7 
     0.0025428       111.46 
    0.00255409      118.746 
    0.00256538      126.612 
    0.00257667      135.083 
    0.00258796      144.212 
    0.00259925       154.02 
    0.00261054      164.555 
    0.00262936      183.795 
    0.00264441       200.66 
    0.00265946       218.81 
    0.00267452      238.106 
    0.00270274      276.415 
    0.00272721      309.808 
    0.00274414      331.365 
    0.00275543      344.304 
    0.00276672      355.651 
    0.00277801      365.032 
     0.0027893      372.135 
    0.00280059      376.716 
    0.00280962      378.553 
    0.00281301      378.723 
    0.00282468      377.556 
    0.00283634      373.694 
    0.00284763      367.514 
    0.00285892      359.261 
    0.00287021      349.092 
     0.0028815      337.753 
    0.00289844      318.791 
    0.00295301      253.615 
    0.00296806      236.623 
    0.00298312       220.55 
    0.00299817      205.499 
    0.00301322      191.512 
    0.00302075      184.859 
     0.0030358      172.454 
    0.00305086      161.051 
    0.00306591      150.591 
    0.00308096      141.008 
    0.00309602      132.232 
    0.00311107      124.197 
    0.00312613      116.836 
    0.00314118      110.088 
    0.00315623      103.896 
    0.00317129      98.2076 
    0.00318634      92.9759 
    0.00320139      88.1573 
    0.00321645       83.713 
     0.0032315      79.6079 
    0.00324655      75.8106 
    0.00326161      72.2926 
    0.00328419      67.4966 
    0.00330677      63.1739 
    0.00332935      59.3051 
    0.00335193      55.7969 
    0.00337451      52.6365 
    0.00339709      49.7544 
    0.00341967      47.1422 
    0.00344225      44.7474 
    0.00347236      41.8727 
    0.00350247      39.3071 
    0.00353257      37.0077 
    0.00356644       34.696 
    0.00360031      32.6322 
    0.00363042      30.9955 
    0.00365771      29.6197 
     0.0036944      27.9422 
    0.00372968      26.5012 
    0.00376496      25.1882 
     0.0038073      23.7747 
    0.00384493      22.6437 
    0.00388257      21.6251 
     0.0039202      20.6856 
    0.00395784      19.8259 
    0.00399547       19.037 
    0.00405192      17.9646 
    0.00410837       17.022 
    0.00416482       16.173 
    0.00422127      15.4185 
    0.00427773      14.7332 
    0.00435299      13.9235 
    0.00442826      13.2106 
    0.00450353      12.5791 
    0.00459762      11.8867 
     0.0046917      11.2803 
     0.0048046        10.65 
     0.0049175      10.1055 
     0.0050257      9.65328 
    0.00515742      9.17958 
    0.00529149      8.76397 
    0.00539734      8.47958 
    0.00553846      8.15827 
    0.00571487      7.81714 
    0.00590284      7.51121 
    0.00610297      7.21979 
    0.00632067      6.95286 
     0.0065734      6.69302 
    0.00688834      6.41776 
    0.00718285      6.20258 
    0.00755396      5.98001 
    0.00798048      5.76227 
    0.00844046      5.57294 
    0.00904125      5.36989 
     0.0096668      5.20168 
     0.0104787      5.02733 
     0.0113312      4.88352 
     0.0123453      4.74544 
     0.0136063      4.61239 
     0.0151824      4.48404 
     0.0170739      4.36832 
     0.0194165       4.2614 
     0.0211719      4.20134 
     0.0248111      4.13091 
     0.0295753      4.07565 
      0.035173      4.04335 
     0.0353393      4.05035 
     0.0353541      4.06137 
     0.0353604      4.07914 
     0.0353641      4.10641 
     0.0353674      4.15587 
     0.0353696      4.21014 
     0.0353718      4.28813 
     0.0353735      4.37031 
     0.0353753      4.47155 
     0.0353779       4.6567 
     0.0353837      5.12039 
     0.0353858      5.25731 
     0.0353872      5.32401 
     0.0353887       5.3677 
       0.03539      5.38043 
     0.0353915      5.36351 
     0.0353929       5.3194 
     0.0353943      5.25086 
     0.0353965      5.10946 
     0.0354024      4.63281 
     0.0354051      4.45256 
     0.0354068      4.35504 
     0.0354092       4.2532 
     0.0354115      4.18194 
      0.035414      4.13373 
     0.0354164      4.10353 
     0.0354202      4.07801 
     0.0354268       4.0611 
     0.0354609      4.04646 
     0.0381972      4.03758 
     0.0384754      4.03758 
      0.040011      4.03948 
     0.0432048      4.02321 
     0.0451522      4.03637 
     0.0464736      4.06949 
     0.0474334      4.11888 
     0.0481568      4.18281 
     0.0487132      4.25861 
     0.0491583      4.34601 
     0.0495478      4.45209 
     0.0498816      4.57611 
     0.0501598      4.71367 
     0.0503267      4.81507 
     0.0505354       4.9706 
     0.0506773      5.09876 
     0.0508386      5.27275 
     0.0509833      5.44293 
     0.0511279      5.64937 
     0.0512615      5.88352 
     0.0513505      6.06845 
     0.0514395      6.28131 
     0.0515285      6.52735 
     0.0516176      6.81184 
     0.0517066      7.12864 
     0.0517734      7.40365 
     0.0518401      7.71518 
     0.0519069      8.07175 
     0.0519737      8.47795 
     0.0520404      8.94578 
     0.0521072      9.48202 
     0.0521517      9.88542 
     0.0521962        10.33 
     0.0522407      10.8205 
     0.0522853      11.3628 
     0.0523298      11.9731 
     0.0523743      12.6518 
     0.0524188      13.4019 
     0.0524633      14.2314 
     0.0525078      15.1486 
     0.0525523      16.1619 
     0.0525968      17.2795 
     0.0526413      18.5089 
     0.0526859      19.8554 
     0.0527304      21.3212 
     0.0527749      22.9033 
     0.0528416      25.4712 
     0.0529835      31.2342 
     0.0530308      33.0039 
     0.0530642      34.1372 
     0.0530976      35.1004 
      0.053131      35.8699 
     0.0531644       36.416 
     0.0531866      36.6431 
       0.05322      36.7762 
     0.0532492      36.6668 
     0.0532784      36.3694 
      0.053309      35.8594 
     0.0533424      35.0959 
     0.0533758      34.1478 
     0.0534314      32.2547 
      0.053501      29.5801 
     0.0535984      25.7381 
     0.0536651      23.2572 
     0.0537096      21.7272 
     0.0537541      20.3074 
     0.0537987      19.0007 
     0.0538432      17.8048 
     0.0538877      16.7147 
     0.0539322      15.7236 
     0.0539767       14.824 
     0.0540212      14.0079 
     0.0540657      13.2676 
     0.0541102      12.5958 
     0.0541548      11.9857 
     0.0541993      11.4309 
     0.0542438      10.9259 
     0.0542883      10.4655 
     0.0543551      9.84966 
     0.0544218      9.30852 
     0.0544886       8.8346 
     0.0545554      8.41515 
     0.0546221      8.04501 
     0.0546889      7.71511 
     0.0547779      7.33068 
     0.0548669      6.99899 
      0.054956       6.7163 
      0.055045      6.47098 
      0.055134      6.25666 
     0.0552676      5.98324 
     0.0554067      5.74822 
     0.0555291      5.57549 
     0.0556904       5.3849 
     0.0558351      5.24425 
     0.0560316      5.08894 
     0.0563358      4.87286 
      0.056614      4.71472 
     0.0568922      4.58768 
     0.0572261      4.46651 
     0.0576156      4.35585 
     0.0581163      4.24677 
     0.0587284      4.14788 
     0.0594517       4.0619 
     0.0604532      3.97663 
     0.0618094      3.90702 
     0.0636525      3.84666 
     0.0665736      3.78792 
     0.0724158      3.71787 
     0.0819754      3.64256 
     0.0916116      3.59339 
      0.101627      3.52816 
      0.116437      3.45722 
      0.116992      3.46323 
      0.117163      3.47916 
      0.117228      3.49788 
      0.117273      3.52729 
      0.117298      3.55781 
      0.117321      3.60829 
      0.117336      3.66373 
      0.117348      3.72862 
      0.117356      3.80173 
      0.117363      3.88983 
      0.117368      3.96895 
      0.117372       4.0512 
      0.117377      4.17438 
       0.11738      4.27632 
      0.117383      4.39747 
      0.117386      4.54099 
      0.117389      4.70965 
      0.117392      4.90591 
      0.117395      5.13103 
      0.117398      5.38499 
      0.117401       5.6653 
      0.117406       6.1239 
      0.117413      6.80417 
      0.117416      7.12609 
       0.11742      7.40394 
      0.117422       7.5831 
      0.117424      7.68636 
      0.117427      7.75696 
      0.117429      7.79271 
       0.11743      7.79712 
      0.117432      7.77121 
      0.117435      7.70002 
      0.117437      7.58629 
      0.117439      7.43436 
      0.117443        7.182 
      0.117446      6.88705 
      0.117457      5.77322 
       0.11746      5.47867 
      0.117463      5.20894 
      0.117466       4.9678 
      0.117469      4.75627 
      0.117472      4.57373 
      0.117475      4.41804 
      0.117478      4.28656 
      0.117482      4.17612 
      0.117485      4.08368 
      0.117489      3.98475 
      0.117493       3.9061 
      0.117499      3.81626 
      0.117504      3.75896 
      0.117514      3.68402 
      0.117523      3.63325 
      0.117534      3.59267 
      0.117549      3.55435 
      0.117573       3.5198 
      0.117613      3.48935 
      0.117702      3.46441 
      0.117926      3.45021 
      0.125791      3.40802 
      0.133945      3.37508 
      0.142398       3.3505 
      0.142932      3.35749 
      0.143014      3.37081 
       0.14305      3.39273 
      0.143066      3.42031 
      0.143075      3.44992 
      0.143082      3.48688 
       0.14309      3.55313 
      0.143097      3.63395 
      0.143117        3.909 
      0.143122       3.9621 
      0.143127      3.98645 
       0.14313      3.98706 
      0.143134      3.96891 
      0.143138      3.93401 
      0.143143      3.86595 
      0.143158      3.63753 
      0.143165      3.54393 
      0.143172      3.47502 
      0.143178      3.43539 
      0.143185      3.40401 
      0.143194      3.38062 
       0.14321      3.36127 
      0.143257      3.34735 
      0.144593      3.34113 
      0.162926      3.29828 
       0.16794      3.29161 
      0.176447      3.30658 
      0.180732      3.33003 
       0.18456      3.37402 
      0.186966      3.42502 
      0.189097      3.49356 
      0.189876      3.53129 
       0.18995      3.54414 
      0.189983      3.56437 
      0.189999      3.59272 
      0.190009      3.62854 
      0.190018      3.67745 
      0.190029      3.76291 
      0.190046      3.90827 
      0.190054      3.95597 
       0.19006      3.96648 
      0.190065      3.95855 
      0.190073      3.91706 
      0.190084       3.8247 
      0.190095       3.7284 
      0.190106      3.65485 
      0.190116      3.61379 
      0.190126      3.58774 
      0.190146      3.56381 
      0.190204         3.55 
      0.190241      3.54886 
      0.191035      3.58812 
      0.192181      3.66916 
      0.193167       3.7632 
      0.193955      3.86239 
      0.194842      3.99109 
      0.195434      4.10541 
      0.196124      4.27604 
      0.196518      4.39729 
      0.196912      4.54706 
      0.197208      4.68133 
      0.197503      4.84064 
        0.1977      4.96151 
      0.197996      5.17833 
      0.198292      5.43232 
      0.198588      5.72176 
      0.198883      6.05509 
       0.19908       6.3004 
      0.199376      6.72286 
      0.200115      7.85581 
      0.200411      8.26565 
      0.200608      8.49151 
        0.2008      8.66112 
      0.201002      8.78044 
      0.201189      8.82704 
      0.201345      8.81606 
      0.201495      8.76716 
      0.201594      8.69702 
      0.201791      8.50271 
      0.202086      8.13231 
       0.20253       7.4875 
      0.202825      7.05699 
      0.203121      6.67328 
      0.203417      6.32571 
      0.203713      6.01404 
       0.20391      5.82899 
      0.204205      5.59147 
      0.204501      5.38721 
      0.204729      5.25199 
      0.205015      5.11152 
        0.2053      4.99802 
      0.205729      4.86394 
      0.206158      4.76606 
      0.206443      4.71762 
      0.207015      4.65512 
      0.207547      4.62881 
        0.2083       4.6103 
      0.209015      4.62708 
      0.209729      4.67059 
      0.212157      4.85876 
      0.213014      4.90282 
      0.214029      4.92438 
      0.214729      4.90955 
        0.2153      4.87356 
      0.216157      4.78457 
      0.217014        4.672 
      0.219626      4.27829 
        0.2203      4.19661 
      0.221443      4.08258 
      0.222585      3.99292 
      0.224871      3.85368 
      0.226014      3.80612 
      0.227157      3.77938 
      0.228014      3.77337 
      0.229156      3.78949 
      0.229827      3.81613 
      0.230585      3.86834 
      0.231299      3.94022 
      0.231871      4.01771 
      0.232442       4.1188 
      0.232871      4.21348 
      0.233457       4.3756 
       0.23387      4.51128 
      0.234299      4.68745 
      0.234585      4.82941 
       0.23487      4.99488 
       0.23512      5.16231 
      0.235442      5.41269 
      0.235745      5.69343 
      0.236013      5.98467 
      0.236272      6.29905 
      0.236397      6.48536 
       0.23646      6.60836 
      0.236495      6.69981 
      0.236524      6.79633 
      0.236547      6.89443 
      0.236567      7.01597 
      0.236586      7.17162 
      0.236595      7.27503 
      0.236607      7.44634 
      0.236616      7.61455 
      0.236626      7.84888 
      0.236633      8.05281 
      0.236639      8.29961 
      0.236646      8.59629 
      0.236653      8.94826 
      0.236659      9.35674 
      0.236666      9.81657 
      0.236683      11.1262 
      0.236691      11.6107 
      0.236696      11.9072 
      0.236701      12.1238 
      0.236706      12.2296 
       0.23671      12.2681 
      0.236716      12.2181 
      0.236721      12.0774 
      0.236725      11.8668 
       0.23673      11.5952 
      0.236737      11.1651 
      0.236755      9.87711 
      0.236761      9.46941 
      0.236768      9.04605 
      0.236776      8.69126 
      0.236782      8.44262 
      0.236789      8.19747 
      0.236797      8.00414 
      0.236804      7.85233 
      0.236816      7.68325 
      0.236823      7.59956 
      0.236838      7.48002 
      0.236858      7.38638 
      0.236877      7.33418 
      0.236913      7.29684 
      0.236925      7.29505 
      0.236974      7.31936 
      0.237059      7.42154 
      0.237173      7.59994 
      0.237445      8.09561 
      0.238033      9.23836 
      0.238247      9.62262 
      0.238461      9.96054 
      0.238729       10.289 
       0.23889      10.4241 
      0.239071      10.5132 
      0.239211      10.5326 
      0.239371      10.5039 
      0.239532      10.4239 
      0.239639      10.3419 
      0.239853      10.1212 
      0.240067       9.8383 
      0.240281      9.50954 
      0.240762      8.68244 
      0.241404      7.55614 
      0.242233      6.16499 
      0.242617      5.76261 
      0.242685      5.72525 
      0.242696      5.72423 
      0.242729      5.73783 
      0.242757      5.77912 
      0.242777      5.83658 
      0.242798      5.92467 
      0.242819      6.05723 
      0.242835      6.18294 
       0.24285      6.33867 
      0.242865       6.5272 
       0.24288      6.74981 
      0.242896      7.00553 
      0.242919      7.44199 
      0.242968      8.46722 
      0.242985      8.76939 
         0.243      9.00594 
      0.243016      9.19258 
      0.243031      9.32634 
      0.243047        9.409 
      0.243066      9.44828 
       0.24307      9.44878 
      0.243092      9.41145 
      0.243114      9.31784 
      0.243151      9.07964 
      0.243214      8.61634 
      0.243263      8.28032 
      0.243313      7.98584 
      0.243379      7.65226 
      0.243444       7.3726 
      0.243517      7.11133 
