#ZVView-data-copy:   1-Oct-2024 00:23:35
#=======================================
#
#name:   ENDF/B-VIII.0: O-16(N,EL)O-16-L0
#X.axis: Incident Energy
#Y.axis: Cross Section
#wdata:  2
#ldata:  2033
#data...
#            X            Y
#          MeV        barns
         1e-11      54.1469 
   1.10304e-11       51.567 
   1.21669e-11      49.1112 
   1.34206e-11      46.7734 
   1.48034e-11       44.548 
   1.63287e-11      42.4298 
   1.80111e-11      40.4137 
   1.98669e-11      38.4947 
   2.19139e-11      36.6683 
   2.41719e-11        34.93 
   2.66625e-11      33.2758 
   2.94097e-11      31.7016 
     3.244e-11      30.2036 
   3.57825e-11      28.7782 
   3.94694e-11       27.422 
   4.35362e-11      26.1318 
   4.80221e-11      24.9044 
   5.29701e-11      23.7368 
    5.8428e-11      22.6263 
   6.44483e-11      21.5702 
   7.10888e-11       20.566 
   7.84136e-11      19.6112 
   8.64931e-11      18.7035 
   9.54051e-11      17.8408 
   1.05235e-10      17.0209 
   1.16078e-10       16.242 
   1.28942e-10      15.4504 
   1.43224e-10      14.7018 
   1.59096e-10      13.9933 
   1.76718e-10      13.3237 
   1.96302e-10      12.6905 
   2.18044e-10      12.0925 
   2.42208e-10      11.5274 
   2.69035e-10      10.9942 
    2.9885e-10      10.4909 
   3.31951e-10      10.0166 
   3.68737e-10      9.56946 
   4.09579e-10      9.14861 
   4.54969e-10      8.75245 
   5.05362e-10      8.38022 
   5.61366e-10      8.03045 
   6.23544e-10      7.70244 
   6.97495e-10      7.37517 
   7.80217e-10       7.0702 
    8.7275e-10      6.78644 
   9.76257e-10      6.52283 
    1.09204e-9      6.27837 
    1.23017e-9      6.03848 
    1.38571e-9       5.8181 
    1.56099e-9      5.61595 
    1.77075e-9      5.42075 
    2.00871e-9      5.24369 
     2.2946e-9      5.07518 
    2.62131e-9       4.9241 
    3.01551e-9      4.78252 
    3.49329e-9      4.65147 
    4.07533e-9       4.5316 
    4.78787e-9      4.42332 
    5.70408e-9      4.32301 
    6.89182e-9      4.23218 
    8.44395e-9      4.15175 
    1.05656e-8      4.07992 
     1.3596e-8      4.01618 
    1.81197e-8      3.96069 
    2.52419e-8      3.91363 
       2.53e-8      3.91335 
    3.74525e-8      3.87459 
    6.11549e-8      3.84332 
    1.16661e-7      3.81981 
    3.06721e-7      3.80376 
     2.1202e-6      3.79533 
      0.102814      3.58115 
       0.17161      3.46093 
      0.208585      3.41134 
      0.245055      3.37935 
          0.26      3.37456 
      0.281975      3.38604 
           0.3      3.41515 
          0.32      3.48922 
          0.34      3.64273 
          0.36      3.96523 
          0.38      4.70501 
          0.39      5.43796 
         0.395      5.97633 
           0.4      6.68575 
         0.405      7.62576 
          0.41      8.86667 
         0.415      10.4667 
          0.42      12.4044 
         0.425      14.4456 
          0.43      16.0351 
         0.434      16.5208 
      0.435125      16.4839 
          0.44       15.639 
         0.445      13.9143 
          0.45        11.98 
         0.455      10.2379 
          0.46      8.81658 
         0.465       7.7037 
          0.47      6.84289 
         0.475      6.17559 
          0.48      5.65389 
           0.5      4.41782 
          0.52       3.8313 
          0.54       3.5036 
          0.56      3.29688 
          0.58      3.15413 
           0.6       3.0486 
      0.624374      2.95199 
      0.644515       2.8878 
      0.669311      2.82385 
           0.7      2.76056 
      0.730047      2.71603 
          0.76      2.68597 
          0.78      2.67746 
           0.8      2.68074 
          0.82      2.70035 
         0.835      2.73117 
         0.845      2.76112 
          0.85      2.77839 
          0.86      2.82438 
          0.87      2.88507 
          0.88       2.9648 
          0.89      3.06953 
           0.9      3.20738 
          0.91      3.38955 
          0.92      3.63134 
          0.93      3.95309 
          0.94      4.38017 
          0.95      4.93936 
          0.96      5.64602 
          0.98      7.30887 
          0.99      7.93373 
             1      8.12579 
          1.01      7.83375 
          1.02      7.21435 
          1.03      6.48393 
          1.04      5.78979 
          1.05      5.19329 
          1.06      4.70378 
          1.07      4.30911 
          1.08      3.99181 
          1.09       3.7355 
           1.1      3.52673 
          1.11      3.35504 
          1.12      3.21245 
          1.13      3.09297 
          1.14      2.99212 
          1.15      2.90654 
          1.16      2.83378 
          1.17      2.77209 
          1.18      2.72034 
          1.19      2.67799 
           1.2      2.64509 
          1.21      2.62249 
          1.22      2.61212 
          1.23      2.61762 
          1.24      2.64561 
          1.25      2.70805 
         1.255      2.75859 
          1.26      2.82757 
         1.265      2.92127 
          1.27      3.04865 
         1.275       3.2225 
          1.28      3.46082 
         1.285      3.78776 
          1.29      4.23175 
         1.295      4.81399 
         1.305      6.21237 
         1.307      6.43811 
         1.309      6.60572 
         1.311       6.7006 
         1.313      6.71468 
         1.315      6.64839 
         1.317       6.5104 
         1.319      6.31527 
         1.321      6.08022 
        1.3275      5.23675 
          1.33      4.91808 
         1.335       4.3785 
          1.34      3.95092 
         1.345      3.61938 
          1.35      3.36261 
          1.36       3.0026 
          1.37      2.76983 
          1.38      2.61023 
          1.39      2.49481 
           1.4      2.40742 
          1.41      2.33864 
          1.42      2.28271 
          1.43      2.23595 
          1.44      2.19594 
          1.46      2.13003 
          1.48      2.07672 
          1.51      2.01132 
          1.55      1.94069 
          1.59      1.88389 
         1.613      1.86379 
         1.616      1.86285 
         1.625      1.87046 
         1.628      1.87787 
         1.632      1.89852 
         1.634      1.91639 
         1.636      1.94323 
         1.638      1.98497 
          1.64      2.05315 
         1.641      2.10419 
         1.642      2.17371 
         1.643      2.27101 
         1.644      2.41213 
       1.64475      2.56918 
         1.645      2.62585 
       1.64575      2.87559 
         1.646       2.9645 
       1.64637      3.14479 
        1.6465      3.21061 
       1.64688      3.44944 
         1.647      3.53644 
       1.64731      3.80036 
        1.6475      3.97094 
       1.64775      4.25242 
       1.64794      4.47293 
       1.64806      4.64195 
       1.64844      5.22137 
       1.64856      5.44136 
       1.64887      6.05575 
         1.649      6.31096 
        1.6495      7.43294 
       1.64994      8.32514 
          1.65      8.42909 
       1.65013      8.57498 
       1.65044      8.85013 
        1.6505      8.87225 
       1.65059      8.84457 
       1.65094       8.5828 
       1.65103      8.46466 
       1.65119      8.17708 
        1.6515      7.55464 
         1.652      6.43364 
       1.65237      5.67198 
        1.6525      5.43227 
       1.65269      5.12254 
       1.65294      4.72896 
       1.65306      4.55501 
       1.65338      4.17834 
        1.6535      4.03714 
       1.65369       3.8608 
       1.65394      3.63969 
       1.65406       3.5469 
       1.65494      3.02951 
       1.65506      2.97064 
       1.65575       2.7274 
         1.656      2.64339 
       1.65675      2.47355 
         1.657      2.42034 
         1.658      2.27215 
         1.659      2.16911 
          1.66      2.09468 
         1.661      2.03916 
         1.662       1.9966 
         1.663      1.96321 
         1.664      1.93654 
         1.666      1.89673 
         1.668      1.86868 
         1.671      1.83948 
         1.675      1.81381 
         1.681      1.78935 
         1.686      1.77788 
         1.687      1.77925 
       1.68791      1.79077 
         1.688      1.79881 
       1.68809      1.81821 
       1.68881      2.01917 
       1.68889      2.04512 
       1.68894      2.07087 
       1.68897      2.09939 
       1.68899      2.13073 
       1.68901      2.16233 
       1.68903      2.20802 
       1.68905      2.26707 
       1.68906      2.32208 
       1.68908      2.38802 
        1.6891      2.46689 
       1.68911      2.56067 
       1.68912      2.67173 
       1.68914       2.8022 
       1.68915      2.95436 
       1.68917      3.12943 
       1.68919      3.32807 
        1.6892       3.5491 
       1.68922      3.87369 
       1.68927      4.65081 
       1.68928      4.88799 
        1.6893      5.09412 
        1.6893      5.20806 
       1.68931      5.29952 
       1.68932      5.36586 
       1.68933      5.40512 
       1.68935      5.41611 
       1.68936      5.39848 
       1.68937      5.35276 
       1.68938      5.28033 
       1.68939      5.18329 
        1.6894      4.99787 
       1.68941      4.77451 
       1.68943      4.52611 
       1.68947      3.83248 
       1.68948      3.58885 
        1.6895      3.36485 
       1.68951      3.16358 
       1.68953      2.98681 
       1.68955      2.83421 
       1.68956      2.70464 
       1.68957      2.59586 
       1.68959      2.50565 
       1.68961      2.42577 
       1.68963      2.35269 
       1.68964      2.29566 
       1.68966      2.25073 
       1.68969      2.20393 
       1.68973      2.15025 
        1.6898      2.06426 
        1.6899      1.95916 
       1.68995      1.91345 
          1.69      1.87869 
       1.69005      1.85843 
       1.69009      1.84807 
       1.69025      1.83792 
         1.692       1.7659 
         1.696      1.75267 
       1.74629      1.67327 
         1.774       1.6314 
         1.796      1.58845 
         1.813      1.55135 
         1.814      1.55034 
         1.816      1.55093 
         1.818      1.55646 
          1.82       1.5714 
         1.822      1.60471 
         1.823       1.6338 
         1.824      1.67672 
         1.825      1.74036 
         1.826      1.83577 
       1.82675      1.94226 
         1.827      1.98058 
       1.82775      2.14366 
         1.828      2.20234 
        1.8285       2.3672 
         1.829      2.54045 
        1.8295       2.7837 
          1.83      3.03667 
       1.83037      3.27768 
        1.8315      4.02234 
       1.83187      4.27304 
         1.832      4.34843 
        1.8325      4.54776 
         1.833      4.72904 
       1.83323      4.75429 
        1.8333      4.75488 
       1.83383      4.68621 
       1.83399       4.6576 
       1.83415      4.60576 
         1.835      4.28395 
         1.836      3.84414 
         1.837      3.45388 
         1.838      3.14195 
         1.839      2.90078 
          1.84        2.715 
         1.841      2.57064 
         1.842        2.457 
         1.843      2.36628 
         1.844      2.29285 
         1.845      2.23268 
         1.846      2.18282 
        1.8475      2.12335 
         1.849      2.07613 
         1.851      2.02881 
         1.853      1.99388 
         1.856      1.95799 
         1.859      1.93646 
         1.862      1.92599 
         1.864      1.92432 
         1.867      1.92979 
          1.87      1.94358 
         1.873      1.96853 
         1.876      2.00422 
         1.878      2.03624 
          1.88       2.0757 
         1.882      2.12379 
         1.884      2.18189 
         1.886      2.25147 
         1.888      2.33392 
          1.89      2.43021 
         1.892      2.54037 
         1.894      2.66258 
         1.898      2.92064 
           1.9      3.03565 
         1.902      3.12263 
         1.904      3.16867 
         1.906      3.16684 
         1.908      3.11884 
          1.91      3.03398 
         1.912      2.92539 
         1.917      2.62845 
         1.919      2.51871 
          1.92      2.46636 
         1.922      2.37207 
         1.924      2.28856 
         1.926      2.21514 
         1.928       2.1508 
          1.93      2.09446 
         1.933      2.02322 
         1.936      1.96325 
          1.94      1.89906 
         1.945      1.83677 
          1.95      1.78808 
         1.955      1.74946 
          1.96      1.71794 
         1.965      1.69166 
         1.975       1.6499 
         1.985      1.61761 
             2      1.57963 
          2.02      1.53978 
       2.05439      1.48472 
          2.12      1.38649 
          2.15      1.33468 
          2.16      1.31604 
          2.18      1.27257 
           2.2      1.21978 
          2.21      1.18852 
          2.22        1.153 
          2.23      1.11226 
          2.24      1.06511 
          2.25      1.01013 
          2.26     0.945689 
          2.27      0.87002 
          2.28       0.7815 
          2.29     0.679205 
           2.3     0.563937 
          2.32     0.315849 
          2.33     0.206898 
         2.335     0.163709 
          2.34     0.131016 
         2.345     0.110502 
          2.35     0.103172 
         2.355     0.109184 
          2.36     0.127833 
         2.365      0.15766 
          2.37     0.196698 
          2.38     0.293322 
        2.3925        0.427 
           2.4     0.506003 
          2.41     0.602111 
          2.42     0.685988 
          2.43     0.757279 
          2.44     0.816956 
          2.45     0.866503 
          2.46     0.907476 
          2.47     0.941312 
          2.48     0.969252 
          2.49     0.992339 
           2.5      1.01143 
         2.515      1.03376 
          2.52      1.04028 
          2.54      1.05998 
          2.56      1.07331 
          2.59      1.08529 
          2.62      1.09111 
          2.66      1.09343 
          2.76      1.09103 
          2.82      1.09446 
          2.85      1.10186 
          2.86      1.10541 
          2.88      1.12705 
         2.883       1.1395 
        2.8845      1.15197 
         2.885       1.1576 
         2.886      1.17571 
       2.88687      1.20616 
         2.887      1.21287 
       2.88725      1.23611 
       2.88781      1.29475 
       2.88791      1.30866 
       2.88797      1.32438 
       2.88803      1.34577 
        2.8881      1.38494 
        2.8882      1.44828 
        2.8886      1.71763 
       2.88867      1.77477 
       2.88873      1.82298 
       2.88876      1.86959 
        2.8888      1.92904 
       2.88884       2.0042 
       2.88888       2.0962 
        2.8889      2.16642 
       2.88895      2.32289 
       2.88901      2.52292 
       2.88904       2.5923 
       2.88906      2.64852 
       2.88909      2.68664 
       2.88911      2.70063 
       2.88911      2.70219 
       2.88913      2.69695 
       2.88915      2.67623 
       2.88917      2.63971 
       2.88919      2.58783 
       2.88921       2.5216 
       2.88923       2.4427 
       2.88925      2.32148 
       2.88929      2.11762 
       2.88934      1.83775 
       2.88936      1.70649 
       2.88939      1.58609 
       2.88941      1.50426 
       2.88943      1.43023 
       2.88944      1.36407 
       2.88946      1.30567 
       2.88948      1.25465 
        2.8895      1.21057 
       2.88952      1.17276 
       2.88954       1.1407 
       2.88956      1.10574 
       2.88959      1.07838 
       2.88961      1.05726 
       2.88964      1.04115 
       2.88967      1.02396 
       2.88972      1.00941 
        2.8898      0.99589 
        2.8899     0.982855 
          2.89     0.974585 
       2.89006     0.972921 
       2.89019     0.975399 
         2.892      1.04587 
         2.894      1.07143 
         2.896       1.0832 
           2.9      1.09511 
         2.905      1.10318 
         2.955       1.1505 
         2.975      1.17561 
          2.99      1.20101 
         2.995       1.2126 
             3      1.22989 
        3.0025      1.24652 
        3.0035      1.25848 
         3.004      1.26628 
       3.00475      1.28665 
         3.005      1.29568 
       3.00563      1.34433 
       3.00591       1.3691 
         3.006      1.38336 
       3.00609      1.40495 
       3.00631       1.4693 
       3.00641      1.50066 
       3.00647      1.52667 
       3.00653      1.55688 
       3.00658      1.59135 
       3.00662      1.63483 
       3.00668      1.68945 
       3.00671      1.73944 
       3.00675      1.79889 
       3.00679      1.86962 
       3.00682      1.95334 
       3.00686      2.05125 
        3.0069      2.16302 
       3.00695      2.32834 
         3.007      2.49565 
       3.00703       2.5711 
       3.00705      2.63493 
       3.00708      2.68242 
       3.00709      2.70464 
       3.00711      2.71367 
       3.00713      2.70841 
       3.00715      2.68829 
       3.00717      2.65329 
       3.00719      2.60406 
        3.0072       2.5639 
       3.00723      2.46808 
       3.00725       2.3559 
       3.00729      2.16943 
       3.00734      1.91726 
       3.00736      1.80061 
       3.00739      1.69472 
       3.00741      1.60142 
       3.00743      1.54016 
       3.00745      1.48643 
       3.00747      1.43985 
       3.00749      1.40005 
       3.00751      1.36386 
       3.00753      1.32999 
       3.00755      1.30324 
       3.00758      1.28224 
       3.00761      1.26096 
       3.00766      1.23836 
       3.00775      1.20716 
       3.00791      1.16471 
         3.008      1.14724 
       3.00807      1.14104 
       3.00814      1.13959 
       3.01006      1.18474 
          3.02      1.23792 
         3.045      1.30973 
          3.06      1.35903 
          3.07      1.39685 
          3.08      1.43904 
          3.09      1.48613 
           3.1      1.53861 
          3.11      1.59699 
          3.12      1.66173 
          3.13      1.73323 
          3.14      1.81182 
          3.15      1.89767 
          3.16      1.99075 
          3.17      2.09084 
          3.18      2.19762 
          3.19      2.31134 
         3.201      2.45413 
        3.2045      2.52014 
         3.206      2.56326 
         3.207       2.6065 
         3.208      2.67583 
       3.20875      2.77023 
         3.209      2.80683 
       3.20937      2.89214 
        3.2095      2.92734 
       3.20975      3.02014 
       3.20994      3.09971 
       3.21006      3.16941 
       3.21031      3.34453 
       3.21044      3.44383 
       3.21053      3.53678 
       3.21062      3.64897 
       3.21088      3.98287 
         3.211      4.16831 
       3.21112      4.38228 
       3.21137      4.83445 
       3.21144       4.9302 
        3.2115      5.00346 
       3.21156      5.04986 
       3.21163      5.07377 
       3.21181      5.09147 
       3.21191      5.08043 
       3.21197      5.05081 
       3.21203      4.99328 
       3.21209      4.90783 
       3.21219      4.74636 
       3.21244      4.28281 
       3.21256      4.07754 
       3.21275      3.80936 
       3.21291      3.59895 
         3.213      3.48958 
       3.21309       3.4019 
       3.21331      3.23934 
       3.21344      3.15515 
       3.21356       3.0872 
       3.21381      2.98882 
         3.214      2.92724 
       3.21419      2.88842 
       3.21475      2.79616 
         3.215       2.7594 
        3.2155      2.72494 
         3.216      2.69643 
         3.218      2.66258 
       3.22025      2.66666 
          3.23      2.75427 
         3.245      2.90134 
         3.255      2.98907 
          3.26      3.03019 
          3.27      3.09995 
          3.28      3.15631 
          3.29      3.19916 
           3.3      3.22911 
          3.31       3.2473 
          3.32      3.25525 
         3.335      3.24977 
          3.35      3.23496 
         3.426      3.10445 
         3.432      3.09703 
         3.435      3.10117 
         3.436       3.1079 
       3.43788       3.2411 
