#ZVView-data-copy:  30-Jul-2024 16:59:40
#=======================================
#
#name:   ENDF/B-VIII.0: SI-30(N,EL)SI-30-L0
#X.axis: Incident Energy
#Y.axis: Cross Section
#wdata:  2
#ldata:  4687
#data...
#            X            Y
#          MeV        barns
         1e-11      25.6669 
   1.10304e-11      24.4486 
   1.21669e-11       23.289 
   1.34206e-11      22.1854 
   1.48034e-11      21.1352 
   1.63287e-11      20.1357 
   1.80111e-11      19.1847 
   1.98669e-11      18.2799 
   2.19139e-11       17.419 
   2.41719e-11      16.5999 
   2.66625e-11      15.8208 
   2.94097e-11      15.0797 
     3.244e-11      14.3749 
   3.57825e-11      13.7046 
   3.94694e-11      13.0673 
   4.35362e-11      12.4613 
   4.80221e-11      11.8853 
   5.29701e-11      11.3379 
    5.8428e-11      10.8177 
   6.44483e-11      10.3235 
   7.15903e-11      9.82138 
   7.95198e-11      9.34653 
   8.83321e-11      8.89721 
    9.8116e-11       8.4726 
   1.08989e-10      8.07109 
   1.21061e-10      7.69199 
   1.34477e-10      7.33381 
   1.49372e-10      6.99595 
   1.65925e-10      6.67709 
   1.84303e-10      6.37666 
   2.04728e-10       6.0935 
   2.27404e-10      5.82708 
   2.52605e-10      5.57636 
   2.80584e-10      5.34087 
   3.11678e-10      5.11967 
   3.48642e-10      4.89892 
   3.89991e-10      4.69305 
   4.36243e-10      4.50131 
   4.87981e-10      4.32303 
   5.45855e-10      4.15752 
   6.10592e-10      4.00416 
   6.87792e-10      3.85385 
   7.74791e-10      3.71578 
    8.7275e-10      3.58936 
   9.90031e-10      3.46736 
    1.12784e-9      3.35329 
    1.28843e-9      3.24853 
    1.48219e-9      3.15015 
    1.70509e-9      3.06295 
    1.97525e-9      2.98235 
    2.30435e-9      2.90874 
    2.72621e-9      2.83967 
    3.24806e-9      2.77863 
     3.9242e-9      2.72343 
     4.8419e-9      2.67306 
    6.10123e-9      2.62855 
    7.90617e-9      2.58947 
    1.06105e-8      2.55579 
    1.49559e-8      2.52719 
    2.27688e-8      2.50322 
    2.52954e-8      2.49864 
       2.53e-8      2.49863 
     4.4309e-8      2.48092 
    9.64231e-8      2.46818 
    3.49894e-7      2.46033 
    4.06952e-5      2.45724 
    0.00162108      2.45274 
    0.00199069      2.45785 
    0.00207803      2.46927 
    0.00212232      2.48849 
    0.00214381      2.50984 
    0.00215945      2.53841 
    0.00216922      2.56772 
    0.00217573      2.59599 
    0.00218224      2.63557 
    0.00218713      2.67663 
    0.00219201      2.73275 
    0.00219527      2.78242 
    0.00219853      2.84619 
    0.00220121      2.91347 
     0.0022039      2.99939 
    0.00220569      3.07061 
    0.00220732      3.14803 
    0.00220895      3.24082 
    0.00221058      3.35338 
     0.0022118      3.45432 
    0.00221294      3.56461 
    0.00221404      3.68912 
    0.00221513      3.83574 
    0.00221623      4.01009 
    0.00221697      4.14536 
     0.0022177      4.29918 
    0.00221847      4.48568 
    0.00221908      4.65389 
    0.00221969      4.84417 
     0.0022203      5.06067 
    0.00222091      5.30854 
    0.00222153      5.59432 
    0.00222214       5.9264 
    0.00222254       6.1788 
    0.00222295      6.46067 
    0.00222336      6.77704 
    0.00222376      7.13407 
    0.00222417      7.53954 
    0.00222448      7.88129 
    0.00222474      8.20799 
    0.00222507       8.6554 
    0.00222539      9.16189 
    0.00222564      9.58782 
    0.00222588      10.0604 
    0.00222613      10.5877 
    0.00222637      11.1798 
    0.00222661      11.8493 
    0.00222686      12.6122 
    0.00222702      13.1825 
    0.00222724      14.0281 
     0.0022274      14.7267 
    0.00222755      15.5007 
    0.00222771      16.3612 
    0.00222787      17.3212 
    0.00222803      18.3957 
    0.00222819      19.6021 
    0.00222835      20.9598 
    0.00222851      22.4916 
    0.00222861      23.6218 
    0.00222872      24.8489 
    0.00222882      26.1818 
    0.00222896      28.0412 
    0.00222908      29.9111 
     0.0022292      31.9692 
    0.00222933      34.2347 
    0.00222945      36.7266 
    0.00222957      39.4659 
    0.00222969      42.4742 
    0.00222981      45.7742 
    0.00222994      49.3889 
    0.00223006      53.3423 
    0.00223018      57.6577 
    0.00223031      62.6882 
    0.00223044      68.1865 
    0.00223057      74.1807 
     0.0022307      80.6958 
    0.00223083      87.7564 
    0.00223096      95.3816 
    0.00223109      103.589 
    0.00223122      112.389 
    0.00223137       123.01 
    0.00223152      134.389 
    0.00223166      146.517 
    0.00223181      159.371 
      0.002232      177.571 
    0.00223221      198.188 
    0.00223249      226.765 
     0.0022332      304.722 
    0.00223346      331.772 
    0.00223372      356.673 
    0.00223392      373.374 
    0.00223411      387.963 
    0.00223431      400.104 
     0.0022345      409.504 
    0.00223466      414.896 
    0.00223484       418.67 
      0.002235       419.69 
    0.00223519      418.222 
    0.00223533      415.119 
    0.00223549      409.566 
    0.00223565      402.123 
    0.00223581      393.029 
    0.00223604      376.357 
    0.00223629      355.376 
    0.00223656      329.041 
    0.00223688       296.25 
     0.0022375      228.173 
    0.00223774      202.939 
    0.00223798      178.999 
     0.0022382       158.86 
    0.00223837      144.256 
    0.00223853      130.609 
     0.0022387      117.949 
    0.00223881      110.063 
    0.00223893      102.618 
    0.00223904      95.6093 
    0.00223917      87.9917 
     0.0022393      80.9382 
    0.00223943      74.4275 
    0.00223956      68.4371 
    0.00223969      62.9403 
    0.00223982      57.9108 
    0.00223995      53.3196 
    0.00224008      49.1383 
     0.0022402      45.5641 
    0.00224032      42.3013 
    0.00224045      39.3264 
    0.00224057      36.6173 
    0.00224069      34.1521 
    0.00224081      31.9107 
    0.00224094      29.8735 
    0.00224106      28.0226 
    0.00224118      26.3405 
     0.0022413      24.8118 
    0.00224144      23.2352 
    0.00224156      22.0465 
    0.00224167      20.9587 
    0.00224179      19.9622 
    0.00224196      18.6196 
    0.00224214      17.4365 
    0.00224231      16.3904 
    0.00224249      15.4616 
    0.00224266      14.6338 
    0.00224283      13.8926 
    0.00224301      13.2262 
    0.00224318      12.6243 
     0.0022434      11.9579 
    0.00224363      11.3105 
    0.00224387      10.7352 
     0.0022441      10.2205 
    0.00224434      9.75752 
    0.00224465      9.20787 
    0.00224496       8.7231 
    0.00224528      8.29247 
    0.00224559      7.90757 
    0.00224595      7.51301 
    0.00224636      7.11907 
    0.00224676      6.77137 
    0.00224717      6.46263 
    0.00224758      6.18699 
    0.00224799      5.93974 
     0.0022486      5.61375 
    0.00224921      5.33257 
    0.00224982      5.08817 
    0.00225043      4.87427 
    0.00225104      4.68594 
    0.00225185       4.4678 
    0.00225265      4.28502 
    0.00225342      4.13022 
    0.00225419       3.9945 
    0.00225535       3.8202 
    0.00225651      3.67416 
    0.00225767      3.55055 
    0.00225845       3.4784 
    0.00226008       3.3482 
     0.0022617      3.24152 
    0.00226333      3.15299 
    0.00226496      3.07869 
    0.00226692      3.00427 
    0.00226985      2.91548 
    0.00227278      2.84669 
    0.00227603      2.78684 
    0.00228092      2.71983 
     0.0022858      2.67121 
    0.00229232      2.62466 
    0.00229883      2.59156 
    0.00231007      2.55331 
     0.0023213      2.52887 
    0.00234345      2.50079 
    0.00237569      2.48085 
    0.00244717        2.464 
    0.00265081       2.4532 
    0.00454039      2.44354 
    0.00482267      2.44854 
    0.00487798      2.45853 
     0.0049064      2.47544 
     0.0049191      2.49244 
    0.00492728       2.5111 
    0.00493567      2.54323 
    0.00493998      2.56909 
    0.00494428      2.60623 
    0.00494751       2.6459 
    0.00495031      2.69318 
    0.00495289      2.75321 
    0.00495461       2.8062 
    0.00495655      2.88411 
    0.00495817      2.97046 
    0.00495924       3.0434 
    0.00496029      3.13077 
    0.00496131      3.23674 
    0.00496208      3.33437 
    0.00496285      3.45302 
    0.00496336      3.54739 
    0.00496387      3.65758 
    0.00496446      3.81005 
    0.00496485      3.93128 
    0.00496524      4.07264 
    0.00496564      4.23929 
    0.00496593      4.38484 
    0.00496623      4.55186 
    0.00496652      4.74466 
    0.00496682      4.96835 
    0.00496701      5.13763 
    0.00496727      5.38884 
    0.00496753      5.67753 
    0.00496772      5.92234 
    0.00496792       6.1946 
    0.00496811      6.49751 
     0.0049683      6.83454 
     0.0049685      7.20944 
    0.00496869      7.62622 
    0.00496889      8.08918 
    0.00496908       8.6028 
    0.00496924      9.07304 
     0.0049694      9.58458 
    0.00496956      10.1404 
    0.00496972      10.7434 
    0.00496989      11.3966 
    0.00497005       12.103 
    0.00497021      12.8654 
    0.00497037      13.6866 
    0.00497059       14.878 
     0.0049708      16.1846 
    0.00497102      17.6119 
    0.00497123      19.1638 
    0.00497145      20.8435 
    0.00497166      22.6522 
    0.00497188        24.59 
    0.00497209      26.6546 
    0.00497231      28.8419 
    0.00497252      31.1454 
     0.0049728      34.2492 
    0.00497321      39.1777 
    0.00497397      48.6932 
    0.00497447      54.9111 
    0.00497478      58.5758 
    0.00497518       62.882 
    0.00497552      66.1585 
    0.00497583      68.6427 
    0.00497614      70.6168 
    0.00497646      72.0562 
    0.00497675      72.8221 
      0.004977        73.02 
    0.00497725      72.8203 
    0.00497754      72.0523 
    0.00497786      70.6111 
    0.00497817       68.636 
    0.00497848      66.1512 
    0.00497883      62.8752 
    0.00497922      58.5709 
    0.00497969      53.0105 
    0.00498079      39.1908 
     0.0049812      34.2681 
    0.00498148      31.1682 
    0.00498177      28.0888 
    0.00498206      25.2253 
    0.00498225      23.4429 
    0.00498245      21.7643 
    0.00498264      20.1902 
    0.00498283      18.7202 
    0.00498303      17.3528 
    0.00498324      15.9508 
    0.00498346      14.6681 
    0.00498367      13.4995 
    0.00498383      12.6942 
      0.004984       11.947 
    0.00498416      11.2549 
    0.00498432      10.6152 
    0.00498448      10.0247 
    0.00498464       9.4806 
    0.00498481      8.96392 
    0.00498499      8.46126 
    0.00498516      8.00378 
    0.00498534      7.58791 
    0.00498552      7.21018 
     0.0049857      6.86736 
    0.00498593      6.45918 
    0.00498617      6.10082 
    0.00498641      5.78609 
    0.00498664      5.50948 
    0.00498694      5.20919 
    0.00498724      4.95255 
    0.00498753      4.73234 
    0.00498783       4.5425 
    0.00498813      4.37794 
    0.00498842      4.23447 
    0.00498882      4.07006 
    0.00498921      3.93044 
    0.00498961      3.81059 
    0.00499006      3.69418 
    0.00499055      3.58325 
     0.0049913      3.44529 
    0.00499205      3.33293 
    0.00499279      3.23968 
    0.00499379      3.13764 
    0.00499487      3.04875 
    0.00499594      2.97643 
    0.00499756      2.89059 
     0.0049989      2.83428 
    0.00500052      2.77994 
    0.00500294      2.71767 
    0.00500579      2.66433 
    0.00500951      2.61544 
    0.00501447      2.57199 
    0.00502009      2.53999 
    0.00502572      2.51853 
    0.00503696      2.49239 
     0.0050572      2.47001 
    0.00509094      2.45558 
    0.00519215      2.44497 
    0.00641117      2.43664 
     0.0372188      2.32444 
     0.0588573      2.23002 
     0.0757263      2.14104 
     0.0890798      2.05566 
     0.0998485      1.97267 
      0.108725      1.89064 
      0.115524       1.8171 
      0.121968      1.73549 
       0.12747      1.65394 
      0.131471      1.58603 
      0.135473      1.50916 
      0.139474      1.42137 
      0.142475      1.34682 
      0.145476      1.26336 
      0.147977      1.18565 
      0.149978      1.11757 
      0.151979      1.04343 
      0.153979     0.962522 
       0.15548     0.897188 
       0.15698     0.826827 
      0.158418     0.755267 
      0.159669     0.689134 
      0.160957      0.61728 
      0.162082     0.551553 
      0.163383     0.472164 
      0.164883     0.376903 
      0.167184     0.228074 
      0.167884     0.183951 
      0.168385     0.153559 
      0.168785     0.130043 
      0.169135     0.110355 
      0.169385    0.0968962 
      0.169585    0.0865304 
      0.169735    0.0790081 
      0.169885    0.0717166 
      0.170085    0.0624456 
      0.170235    0.0558416 
      0.170385    0.0495445 
      0.170485     0.045541 
      0.170585    0.0416975 
       0.17071    0.0371361 
       0.17081    0.0336826 
       0.17091    0.0304163 
      0.171011    0.0273461 
      0.171086    0.0251674 
      0.171161    0.0231154 
      0.171236    0.0211899 
      0.171311    0.0193939 
      0.171386    0.0177297 
      0.171442    0.0165721 
      0.171498    0.0154941 
      0.171554    0.0144977 
      0.171611    0.0135847 
      0.171667    0.0127574 
      0.171723    0.0120179 
       0.17178    0.0113687 
      0.171836    0.0108124 
      0.171883    0.0104213 
       0.17193    0.0100963 
      0.171976   0.00983826 
      0.172023   0.00965367 
       0.17207    0.0095409 
      0.172117   0.00950095 
      0.172153    0.0095218 
      0.172189   0.00958708 
      0.172225   0.00969771 
      0.172261   0.00985454 
      0.172308    0.0101298 
      0.172355    0.0104866 
      0.172402    0.0109266 
      0.172449    0.0114518 
      0.172495    0.0120637 
      0.172542    0.0127685 
      0.172589    0.0135615 
      0.172636    0.0144451 
      0.172692    0.0156304 
      0.172749    0.0169553 
      0.172805    0.0184229 
      0.172861    0.0200367 
      0.172917    0.0218002 
      0.172974    0.0237172 
       0.17303    0.0257919 
      0.173086    0.0280285 
      0.173143    0.0304311 
      0.173199    0.0330038 
      0.173255    0.0357505 
      0.173311    0.0386752 
      0.173368    0.0417823 
      0.173443    0.0462166 
      0.173518    0.0509971 
      0.173593    0.0561309 
      0.173649    0.0602231 
      0.173724    0.0660088 
      0.173799    0.0721835 
      0.173874    0.0787599 
      0.173949    0.0857514 
      0.174037    0.0944499 
      0.174112     0.102441 
      0.174212     0.113746 
      0.174312     0.125905 
      0.174412     0.138955 
      0.174487     0.149321 
      0.174587     0.164025 
      0.174687     0.179732 
      0.174787     0.196487 
      0.174887     0.214334 
      0.174987     0.233322 
      0.175087       0.2535 
      0.175187      0.27492 
      0.175287     0.297637 
      0.175387     0.321705 
      0.175487     0.347184 
      0.175587     0.374134 
      0.175687     0.402618 
      0.175787     0.432702 
      0.175887     0.464455 
      0.175987     0.497947 
      0.176087     0.533252 
      0.176237      0.58989 
      0.176387     0.650825 
      0.176537      0.71681 
      0.176688     0.787649 
      0.176838     0.864185 
      0.176988     0.946193 
      0.177138      1.03462 
      0.177288      1.12919 
      0.177438      1.23096 
      0.177588      1.33961 
      0.177738      1.45631 
      0.177888       1.5807 
      0.178038      1.71402 
      0.178188      1.85587 
      0.178338       2.0076 
      0.178488      2.16871 
      0.178663      2.37021 
      0.178888      2.65109 
      0.179088       2.9223 
      0.179288      3.21495 
      0.179489      3.52989 
      0.179689      3.86785 
      0.179889      4.22936 
      0.180089      4.61474 
      0.180289      5.02397 
      0.180489      5.45673 
      0.180752      6.06138 
      0.180939      6.51189 
      0.181189      7.14155 
      0.181689      8.46991 
       0.18249      10.6511 
       0.18289      11.6836 
       0.18319      12.4003 
       0.18349       13.046 
       0.18379      13.6061 
       0.18409      14.0706 
       0.18439       14.445 
       0.18469      14.7128 
      0.184991      14.8926 
      0.185291      14.9759 
      0.185441      14.9921 
      0.185791      14.9484 
      0.186166      14.8027 
      0.186691      14.4779 
      0.187291      13.9755 
      0.188292      13.0072 
      0.189492      11.8203 
      0.190292      11.0855 
      0.191093       10.415 
      0.191893      9.81158 
      0.192693      9.27213 
      0.193494       8.7912 
      0.194294      8.36249 
      0.195094      7.97979 
      0.196095      7.55831 
      0.197095       7.1881 
      0.198295      6.80337 
      0.199496      6.47139 
      0.200696      6.18279 
      0.202097      5.89137 
      0.203597      5.62222 
      0.205298      5.36254 
      0.206998       5.1384 
      0.208874      4.92702 
         0.211       4.7234 
      0.213501       4.5197 
      0.216502      4.31743 
      0.219503      4.14946 
      0.223004       3.9866 
      0.227006      3.83307 
      0.231007      3.70803 
      0.233039      3.66261 
      0.233445       3.6599 
      0.233966      3.67037 
      0.234231      3.69263 
      0.234398       3.7227 
      0.234517      3.76015 
      0.234596      3.79864 
      0.234665      3.84681 
      0.234724      3.90486 
      0.234783      3.98705 
      0.234826      4.07295 
      0.234855      4.14752 
      0.234882      4.23175 
      0.234905      4.32519 
      0.234929      4.44087 
      0.234953       4.5865 
      0.234972      4.73633 
      0.234987      4.87851 
      0.235003      5.04859 
      0.235018      5.25429 
      0.235031      5.47318 
      0.235043      5.69847 
      0.235055      5.96547 
      0.235063      6.19924 
      0.235072      6.46774 
      0.235081      6.77787 
      0.235089      7.13781 
      0.235098      7.55783 
      0.235104      7.87727 
       0.23511      8.23321 
      0.235116      8.63052 
      0.235121      9.05129 
      0.235126      9.49357 
      0.235132      9.98303 
      0.235137      10.5245 
      0.235142      11.1229 
      0.235147      11.7827 
      0.235152      12.5079 
      0.235158       13.301 
      0.235163      14.1134 
       0.23517      15.3613 
      0.235177       16.714 
      0.235197      21.0189 
      0.235203      22.1396 
      0.235209      23.1234 
      0.235213       23.677 
      0.235217       24.132 
      0.235221      24.4759 
      0.235225      24.6991 
       0.23523      24.7989 
      0.235234       24.728 
      0.235238      24.5167 
      0.235242      24.1716 
      0.235247      23.7037 
      0.235252       22.913 
      0.235258      21.8213 
      0.235265       20.593 
      0.235284      16.6844 
       0.23529      15.3767 
      0.235297      14.1296 
      0.235302      13.3638 
      0.235307      12.6523 
      0.235311      11.9946 
      0.235316      11.3891 
      0.235321      10.8335 
      0.235326       10.264 
      0.235332      9.69477 
      0.235337      9.18603 
      0.235343      8.73131 
      0.235349      8.32453 
      0.235355      7.96013 
      0.235361      7.63315 
      0.235367      7.33916 
      0.235375      6.95159 
      0.235384      6.61834 
      0.235393      6.33036 
      0.235401      6.08008 
       0.23541      5.86155 
      0.235422      5.60816 
      0.235434       5.3915 
      0.235446      5.20723 
      0.235458      5.04934 
      0.235474      4.87081 
      0.235484      4.77472 
      0.235504      4.61175 
      0.235524      4.47969 
      0.235544       4.3713 
      0.235573      4.24552 
      0.235602      4.14717 
      0.235645      4.03553 
      0.235689      3.95338 
      0.235747      3.87369 
      0.235813      3.80963 
      0.235887      3.75886 
