#ZVView-data-copy:  10-Jan-2025 23:27:10
#=======================================
#
#name:   ENDF/B-VIII.0: TL-205(N,EL)TL-205-L0
#X.axis: Incident Energy
#Y.axis: Cross Section
#wdata:  2
#ldata:  5847
#data...
#            X            Y
#          MeV        barns
         1e-11      37.7035 
   1.11082e-11      35.8748 
   1.23386e-11      34.1459 
   1.37059e-11      32.5101 
    1.5224e-11      30.9646 
   1.69111e-11      29.5035 
   1.87842e-11      28.1243 
   2.08659e-11      26.8216 
    2.3177e-11      25.5931 
   2.57455e-11       24.434 
   2.85971e-11      23.3424 
   3.17662e-11      22.3139 
   3.52847e-11      21.3466 
   3.91949e-11      20.4367 
   4.35362e-11      19.5826 
   4.83609e-11      18.7807 
   5.40964e-11       17.981 
    6.0233e-11      17.2654 
   6.73766e-11      16.5697 
   7.53674e-11      15.9234 
   8.43059e-11      15.3238 
   9.49697e-11      14.7354 
   1.06977e-10      14.1947 
   1.20509e-10      13.6986 
   1.36703e-10      13.2195 
   1.55073e-10      12.7848 
   1.77144e-10      12.3709 
   2.02366e-10      11.9998 
   2.32799e-10       11.652 
   2.69683e-10        11.33 
   3.14616e-10      11.0354 
   3.69626e-10      10.7693 
   4.40357e-10      10.5228 
   5.28324e-10      10.3071 
   6.47342e-10      10.1081 
   8.09995e-10      9.93033 
    1.03501e-9      9.77648 
    1.36972e-9      9.64114 
    1.89048e-9      9.52585 
    2.77907e-9       9.4289 
    4.47472e-9      9.35073 
    8.34654e-9       9.2913 
    2.07484e-8      9.25025 
    2.52722e-8       9.2453 
       2.53e-8      9.24527 
    1.92905e-7      9.22557 
    4.41392e-5      9.21689 
    4.46041e-5      9.21717 
     0.0011351      9.04578 
    0.00144394      8.97603 
    0.00144482      8.97609 
    0.00186038      8.84039 
     0.0021203      8.70249 
     0.0022985      8.55209 
    0.00241895      8.39501 
     0.0025031      8.23225 
     0.0025658      8.05712 
      0.002612      7.87472 
      0.002645      7.69635 
     0.0026714      7.50485 
     0.0026912       7.3156 
     0.0027077      7.11124 
     0.0027209      6.90168 
     0.0027308       6.7056 
     0.0027407      6.46312 
    0.00274689        6.281 
    0.00275291      6.07653 
    0.00275918       5.8342 
    0.00276661      5.52946 
    0.00276957      5.42602 
    0.00277205        5.372 
    0.00277304      5.36541 
    0.00277428      5.37584 
    0.00277551      5.41507 
    0.00277644       5.4705 
    0.00277737      5.55634 
    0.00277822      5.66944 
     0.0027789      5.79138 
    0.00277958      5.94777 
    0.00278026       6.1471 
    0.00278071      6.30929 
    0.00278117      6.49964 
    0.00278162      6.72297 
    0.00278212      7.01103 
    0.00278261      7.35429 
    0.00278294      7.61923 
    0.00278327      7.91761 
     0.0027836      8.25398 
    0.00278393      8.63368 
    0.00278426      9.06283 
    0.00278456      9.49731 
    0.00278485      9.98369 
    0.00278515       10.529 
    0.00278545      11.1411 
    0.00278575      11.8294 
    0.00278604      12.6045 
    0.00278626        13.25 
    0.00278649      13.9571 
    0.00278674      14.8229 
    0.00278693      15.5828 
    0.00278713      16.4087 
    0.00278733      17.3069 
    0.00278753      18.2844 
    0.00278773      19.3485 
    0.00278792      20.5077 
    0.00278812      21.7705 
     0.0027883      23.0274 
    0.00278855      24.9088 
     0.0027888      27.0024 
    0.00278904      29.3299 
    0.00278929      31.9135 
    0.00278954      34.7747 
    0.00278976      37.6041 
    0.00278999      40.6864 
    0.00279021      44.0304 
    0.00279043       47.639 
    0.00279065      51.5085 
    0.00279088       55.783 
     0.0027912      61.9614 
    0.00279167      71.8019 
    0.00279217      82.3985 
    0.00279245      88.0267 
    0.00279273      93.1873 
    0.00279301      97.6805 
    0.00279319      100.215 
    0.00279338      102.327 
    0.00279361      104.313 
    0.00279382      105.459 
    0.00279406      106.023 
    0.00279409      106.037 
    0.00279429      105.807 
    0.00279449      105.065 
    0.00279469       103.85 
    0.00279495       101.58 
    0.00279522      98.6942 
    0.00279561      93.5213 
    0.00279614      85.7571 
     0.0027968       75.861 
     0.0027972      70.2469 
    0.00279759      65.0323 
    0.00279799      60.2697 
    0.00279825      57.3511 
    0.00279858      53.9839 
    0.00279891      50.9137 
    0.00279924      48.1195 
    0.00279957      45.5783 
     0.0027999      43.2669 
    0.00280023      41.1632 
    0.00280056      39.2461 
    0.00280089      37.4966 
    0.00280139      35.1487 
    0.00280188       33.088 
    0.00280238       31.271 
    0.00280287      29.6619 
    0.00280337      28.2304 
    0.00280386      26.9514 
    0.00280419      26.1729 
    0.00280485      24.7703 
    0.00280551      23.5441 
    0.00280617      22.4655 
    0.00280694      21.3705 
     0.0028077      20.4126 
    0.00280846      19.5683 
    0.00280923        18.82 
    0.00281025      17.9474 
    0.00281144      17.0751 
    0.00281263      16.3292 
    0.00281382      15.6854 
    0.00281501      15.1247 
     0.0028166      14.4818 
    0.00281809      13.9676 
    0.00281957      13.5209 
     0.0028218      12.9512 
    0.00282402      12.4757 
    0.00282551      12.2001 
    0.00282848      11.7269 
    0.00283186       11.286 
    0.00283525      10.9211 
    0.00283982      10.5165 
    0.00284465      10.1696 
    0.00284795      9.96742 
    0.00285455      9.62412 
    0.00286115      9.33997 
    0.00287105      8.98602 
     0.0028826      8.64011 
    0.00290224      8.12869 
    0.00292543      7.53942 
    0.00293803      7.18612 
    0.00294631      6.92896 
      0.002955      6.62846 
    0.00296369      6.28698 
    0.00297093      5.96198 
    0.00297636      5.68828 
    0.00298179      5.38434 
    0.00298722      5.04592 
    0.00299265      4.66996 
    0.00299754      4.30011 
     0.0030062      3.61021 
    0.00300858      3.43546 
    0.00301018      3.33369 
    0.00301177       3.2511 
    0.00301286      3.21053 
    0.00301394      3.18739 
    0.00301467      3.18415 
    0.00301539      3.19287 
    0.00301612      3.21582 
    0.00301684      3.25575 
    0.00301756      3.31596 
    0.00301829       3.4004 
    0.00301883      3.48247 
    0.00301938      3.58315 
    0.00301992      3.70515 
    0.00302046      3.85174 
      0.003021      4.02685 
    0.00302155      4.23511 
    0.00302191      4.39497 
    0.00302227      4.57369 
    0.00302263      4.77328 
      0.003023      4.99599 
    0.00302336      5.24436 
    0.00302368      5.49075 
    0.00302401      5.76224 
    0.00302433      6.06137 
    0.00302465      6.39097 
    0.00302498      6.75423 
     0.0030253      7.15475 
    0.00302563      7.59666 
    0.00302595       8.0846 
    0.00302631       8.6892 
    0.00302667      9.36585 
    0.00302703      10.1241 
    0.00302727      10.6802 
    0.00302752       11.281 
    0.00302776      11.9307 
    0.00302808      12.8873 
    0.00302838      13.8866 
    0.00302869      14.9936 
    0.00302899      16.2222 
     0.0030293      17.5877 
     0.0030295      18.5829 
     0.0030297      19.6529 
     0.0030299      20.8042 
    0.00303011      22.0442 
    0.00303031      23.3808 
    0.00303051      24.8229 
    0.00303072      26.3803 
    0.00303092      28.0639 
    0.00303112      29.8857 
    0.00303138      32.4531 
    0.00303164      35.3032 
    0.00303182      37.3783 
    0.00303199      39.6079 
    0.00303216       42.005 
    0.00303234      44.5846 
    0.00303251      47.3628 
    0.00303273      51.1425 
    0.00303295      55.2988 
    0.00303316       59.875 
    0.00303338      64.9189 
     0.0030336      70.4839 
     0.0030338      76.1997 
      0.003034      82.2386 
    0.00303419      88.8454 
    0.00303439      96.0753 
    0.00303458      103.984 
    0.00303478       112.63 
    0.00303497      122.074 
    0.00303517      132.374 
    0.00303536      143.585 
    0.00303556      155.755 
    0.00303576      168.919 
    0.00303597      184.742 
    0.00303619      201.815 
    0.00303641      220.096 
     0.0030367      246.167 
    0.00303707      281.568 
    0.00303767       341.33 
    0.00303798      369.374 
    0.00303824      391.223 
    0.00303847      407.206 
    0.00303869      420.361 
    0.00303891      430.279 
     0.0030391      436.017 
    0.00303927      438.737 
    0.00303943      439.515 
    0.00303959      438.432 
    0.00303983      433.507 
    0.00304006      424.964 
     0.0030403      413.305 
    0.00304054      399.112 
    0.00304083      379.919 
    0.00304123      349.651 
    0.00304194      295.551 
    0.00304224      273.726 
    0.00304255      253.286 
    0.00304285      234.403 
    0.00304316      217.126 
    0.00304346      201.425 
    0.00304377      187.216 
      0.003044      177.324 
    0.00304426      167.089 
    0.00304452      157.723 
    0.00304478      149.149 
    0.00304504      141.296 
     0.0030453      134.094 
    0.00304556      127.481 
    0.00304582        121.4 
     0.0030461      115.502 
    0.00304639      109.811 
    0.00304668      104.597 
    0.00304711      97.5625 
    0.00304755      91.3441 
    0.00304798      85.8225 
    0.00304842       80.859 
    0.00304886      76.3479 
    0.00304931      72.3015 
    0.00304975      68.6578 
     0.0030502      65.3643 
    0.00305064      62.3767 
    0.00305114      59.3416 
    0.00305164      56.5978 
    0.00305214      54.1077 
    0.00305289      50.7823 
    0.00305364      47.8746 
    0.00305439       45.315 
      0.003055       43.443 
    0.00305573      41.4435 
    0.00305645      39.6469 
    0.00305718      38.0257 
    0.00305826      35.8732 
    0.00305935      34.0009 
    0.00306044      32.3595 
    0.00306152      30.9106 
    0.00306261      29.6234 
    0.00306406      28.1166 
     0.0030655       26.808 
    0.00306703      25.6085 
    0.00306862      24.5097 
    0.00307021      23.5458 
     0.0030718      22.6929 
    0.00307416      21.5969 
    0.00307649      20.6694 
    0.00307883      19.8689 
    0.00308127       19.141 
    0.00308372       18.505 
    0.00308716      17.7363 
    0.00309078      17.0521 
     0.0030944      16.4693 
    0.00309802      15.9671 
    0.00310345      15.3321 
    0.00310888      14.8068 
    0.00311431      14.3649 
    0.00312083      13.9204 
    0.00312735      13.5463 
    0.00313604      13.1318 
    0.00314473      12.7902 
    0.00315776      12.3771 
     0.0031708      12.0501 
    0.00318383      11.7843 
    0.00320121      11.4989 
    0.00322439      11.2032 
    0.00325335      10.9248 
    0.00328811      10.6763 
    0.00333446      10.4351 
    0.00339384      10.2164 
     0.0034735      10.0137 
    0.00358357      9.82616 
    0.00372985      9.66311 
     0.0039571      9.50129 
    0.00395778       9.5011 
    0.00395992      9.50266 
    0.00429835      9.34687 
    0.00441158      9.30513 
    0.00441507      9.32354 
    0.00442103      9.30281 
    0.00442167       9.3027 
    0.00442425      9.31226 
    0.00442537      9.36511 
    0.00442672      9.48161 
      0.004427      9.48812 
    0.00442777      9.45052 
    0.00442894      9.34693 
    0.00442998      9.31017 
    0.00450819      9.27141 
    0.00481779      9.13925 
    0.00492741      9.04384 
    0.00497826      8.95525 
    0.00501052      8.85328 
    0.00503239      8.73298 
    0.00504551      8.61725 
    0.00505426      8.50514 
    0.00506301      8.34316 
    0.00506916      8.17832 
    0.00507394      8.00121 
    0.00507794      7.80147 
    0.00508047      7.63974 
    0.00508274      7.46301 
    0.00508475      7.27549 
    0.00508696      7.03217 
     0.0050898      6.69473 
    0.00509073      6.61899 
    0.00509121      6.60541 
    0.00509168      6.62377 
    0.00509208      6.67664 
    0.00509238      6.75226 
    0.00509269      6.87122 
    0.00509289       6.9829 
    0.00509309      7.12833 
    0.00509329      7.31633 
    0.00509344      7.49192 
    0.00509361      7.72459 
    0.00509378      8.02214 
     0.0050939       8.2577 
    0.00509401      8.52784 
    0.00509413      8.83729 
    0.00509424      9.19125 
    0.00509436      9.59548 
    0.00509447      10.0446 
    0.00509458      10.5408 
    0.00509469      11.1006 
     0.0050948      11.7305 
    0.00509491      12.4375 
    0.00509501      13.2286 
    0.00509512      14.1106 
    0.00509523      15.0905 
    0.00509534       16.118 
    0.00509544      17.1829 
    0.00509553      18.3406 
    0.00509563      19.5942 
    0.00509573       20.946 
    0.00509583      22.3971 
    0.00509593      23.9474 
    0.00509608      26.4552 
     0.0050962      28.6537 
    0.00509638      32.1873 
    0.00509656      35.9554 
    0.00509709      47.7251 
    0.00509729      51.8637 
    0.00509746      55.1042 
    0.00509759      57.5071 
    0.00509773      59.6297 
    0.00509787      61.4299 
      0.005098      62.8477 
    0.00509813       63.881 
    0.00509828      64.6146 
    0.00509841      64.8551 
    0.00509845      64.8586 
    0.00509858      64.6442 
    0.00509871      64.1053 
    0.00509888      62.9199 
    0.00509902      61.5004 
    0.00509917      59.7749 
    0.00509937      57.0962 
    0.00509966      52.5481 
    0.00510021      43.7346 
    0.00510043      40.4333 
    0.00510065      37.3807 
    0.00510081      35.2778 
    0.00510097      33.3425 
    0.00510114      31.5742 
     0.0051013      29.9682 
    0.00510147      28.5156 
    0.00510163      27.2056 
    0.00510179      26.0262 
    0.00510196       24.965 
    0.00510218      23.7131 
    0.00510237      22.7252 
    0.00510264      21.5809 
     0.0051029      20.6013 
    0.00510316      19.7564 
    0.00510342       19.022 
    0.00510369      18.3788 
    0.00510396      17.7893 
    0.00510437      17.0299 
    0.00510478      16.3897 
    0.00510519      15.8432 
     0.0051056      15.3715 
    0.00510615      14.8349 
    0.00510669      14.3819 
    0.00510751      13.8211 
    0.00510839      13.3403 
    0.00510937      12.9042 
    0.00511036      12.5497 
    0.00511168      12.1654 
    0.00511318      11.8238 
    0.00511468      11.5518 
    0.00511662      11.2713 
    0.00511857      11.0499 
    0.00512124       10.813 
    0.00512397      10.6252 
    0.00512752      10.4373 
     0.0051319       10.264 
    0.00513846      10.0782 
    0.00514721      9.91119 
     0.0051565       9.7905 
    0.00517017      9.67087 
    0.00519204      9.55247 
    0.00522703      9.44582 
    0.00529155      9.34652 
    0.00539253      9.27085 
      0.005395       9.2732 
    0.00561125      9.19025 
    0.00627679      9.06745 
    0.00632667      9.06019 
    0.00633013       9.0626 
    0.00663943      9.01831 
    0.00665031      9.03121 
    0.00665155      9.05345 
     0.0066523      9.10574 
    0.00665276      9.18339 
    0.00665319      9.31055 
    0.00665357      9.49043 
    0.00665387      9.67822 
    0.00665418      9.92119 
     0.0066551      10.7643 
    0.00665539      10.9827 
    0.00665564      11.1171 
     0.0066559      11.1911 
      0.006656      11.1977 
    0.00665628       11.156 
    0.00665653      11.0477 
    0.00665678      10.8834 
    0.00665722      10.5057 
    0.00665782      9.94994 
    0.00665824      9.63481 
    0.00665862      9.41682 
      0.006659      9.26702 
    0.00665947      9.15683 
    0.00665993      9.09847 
    0.00666097      9.05112 
    0.00666553      9.02391 
    0.00792445      8.86406 
    0.00840194      8.80931 
    0.00842379      8.82658 
    0.00842787      8.86202 
     0.0084297      8.91476 
    0.00843067        8.982 
    0.00843131      9.07024 
    0.00843179      9.18229 
    0.00843227      9.35911 
    0.00843264       9.5545 
    0.00843301      9.81624 
    0.00843325      10.0319 
    0.00843355      10.3379 
    0.00843384       10.689 
    0.00843487      12.0561 
    0.00843513      12.3531 
    0.00843538      12.5953 
    0.00843563       12.763 
    0.00843588      12.8519 
      0.008436      12.8646 
    0.00843627      12.8216 
    0.00843654      12.6876 
     0.0084368      12.4759 
    0.00843705      12.2044 
    0.00843744      11.7205 
    0.00843795      11.0299 
    0.00843837      10.5089 
    0.00843869      10.1621 
    0.00843898       9.9005 
    0.00843935      9.62456 
    0.00843973      9.41824 
    0.00844018      9.24599 
     0.0084405      9.15899 
    0.00844114      9.04613 
     0.0084421       8.9595 
    0.00844339       8.9051 
    0.00844692      8.85007 
    0.00845656      8.81755 
    0.00861978      8.78395 
     0.0101298      8.59429 
     0.0101585      8.61092 
     0.0101661      8.64723 
     0.0101697      8.69909 
     0.0101717      8.75693 
      0.010173      8.82311 
     0.0101741      8.91895 
     0.0101749      9.01864 
     0.0101754       9.1184 
     0.0101758      9.23906 
     0.0101761      9.37684 
     0.0101764      9.57337 
     0.0101767      9.77824 
     0.0101769      10.0531 
     0.0101771      10.2686 
     0.0101772      10.5274 
     0.0101774      10.8382 
     0.0101775      11.2101 
     0.0101777      11.6543 
     0.0101778      12.1819 
     0.0101779      12.6406 
      0.010178      13.1583 
     0.0101782      13.8646 
     0.0101783      14.5765 
     0.0101784      15.3765 
     0.0101785      16.2712 
     0.0101787      17.2671 
     0.0101788      18.3697 
     0.0101789      19.5835 
      0.010179      20.9119 
     0.0101791       22.507 
     0.0101793      24.4076 
     0.0101794      26.4741 
     0.0101796      28.6992 
     0.0101797      30.9608 
     0.0101799       34.393 
     0.0101802      39.2428 
     0.0101806      47.6074 
     0.0101808      51.6442 
      0.010181      55.1431 
     0.0101812      57.4064 
     0.0101814      59.3537 
     0.0101815      60.7456 
     0.0101816      61.9069 
     0.0101818      62.6489 
     0.0101819       63.066 
      0.010182      63.1288 
     0.0101822       62.894 
     0.0101823      62.3624 
     0.0101824      61.4755 
     0.0101826      60.0619 
     0.0101827      58.5256 
     0.0101829      56.4352 
     0.0101831      53.6705 
     0.0101832      50.9734 
     0.0101835      45.5181 
      0.010184      36.8652 
     0.0101842      33.3186 
     0.0101844      29.9765 
     0.0101845      27.8897 
     0.0101847      25.5281 
     0.0101848      23.6088 
     0.0101849      21.8491 
     0.0101851      20.2455 
     0.0101852      18.7993 
     0.0101853      17.9198 
     0.0101854      16.8326 
     0.0101856      15.8589 
     0.0101857      14.9906 
     0.0101858      14.2212 
     0.0101859      13.5415 
     0.0101861      12.9451 
     0.0101862      12.4231 
     0.0101863      11.9686 
     0.0101865       11.466 
     0.0101866      11.0498 
     0.0101868       10.706 
      0.010187      10.4231 
     0.0101871      10.1901 
     0.0101874      9.91542 
     0.0101876      9.70923 
     0.0101879       9.5089 
     0.0101883      9.36627 
     0.0101888      9.21825 
     0.0101895      9.06929 
     0.0101902       8.9909 
     0.0101914       8.8864 
     0.0101934      8.79182 
     0.0101956      8.73216 
     0.0101997      8.67483 
     0.0102076      8.63161 
     0.0102345      8.59549 
     0.0107689      8.50448 
     0.0117188      8.34806 
      0.011739      8.36362 
     0.0117448      8.40175 
     0.0117475      8.45534 
     0.0117492      8.54249 
     0.0117499       8.6104 
     0.0117504      8.68251 
     0.0117508      8.77628 
     0.0117511      8.89166 
     0.0117515      9.05975 
     0.0117517      9.23571 
      0.011752      9.47014 
     0.0117522      9.74631 
     0.0117524      10.0999 
     0.0117526      10.3874 
     0.0117527      10.7233 
     0.0117529       11.113 
