#ZVView-data-copy:   1-Oct-2024 17:16:32
#=======================================
#
#name:   ENDF/B-VIII.0: W-182(N,EL)W-182-L0
#X.axis: Incident Energy
#Y.axis: Cross Section
#wdata:  2
#ldata:  23788
#data...
#            X            Y
#          MeV        barns
         1e-11      38.3125 
   1.11082e-11      36.4432 
   1.23386e-11      34.6753 
   1.37059e-11       33.002 
    1.5224e-11      31.4204 
   1.69111e-11      29.9246 
   1.87842e-11      28.5118 
   2.08659e-11      27.1767 
    2.3177e-11      25.9169 
   2.57455e-11      24.7275 
   2.85971e-11      23.6065 
   3.17662e-11      22.5495 
   3.52847e-11      21.5545 
   3.91949e-11      20.6177 
   4.35362e-11      19.7373 
   4.83609e-11      18.9099 
   5.37174e-11      18.1338 
   6.00883e-11      17.3593 
   6.72147e-11      16.6373 
   7.51862e-11      15.9653 
   8.41032e-11      15.3408 
   9.40778e-11      14.7616 
   1.05978e-10      14.1929 
   1.19377e-10      13.6703 
   1.34477e-10      13.1907 
   1.52548e-10      12.7273 
   1.73048e-10      12.3069 
   1.97676e-10      11.9065 
   2.25822e-10      11.5474 
   2.59783e-10      11.2107 
   3.00943e-10      10.8989 
   3.51084e-10      10.6136 
   4.12469e-10      10.3558 
   4.91398e-10      10.1169 
   5.89562e-10       9.9078 
   7.22375e-10      9.71475 
    8.9755e-10      9.54721 
    1.14695e-9      9.39685 
    1.51786e-9      9.26453 
    2.09493e-9      9.15168 
    3.07947e-9      9.05653 
    4.92392e-9      8.98016 
    9.12053e-9      8.92007 
    2.23571e-8      8.87309 
    2.52419e-8      8.86845 
       2.53e-8      8.86837 
    1.63054e-7      8.77665 
    8.94508e-7      8.35729 
     1.4103e-6      8.00423 
    1.80218e-6      7.68174 
    2.11718e-6      7.36875 
    2.36827e-6      7.06788 
    2.57595e-6      6.76903 
    2.74364e-6      6.48135 
    2.88146e-6      6.20267 
    3.00514e-6      5.90952 
    3.11233e-6      5.61276 
    3.20077e-6      5.32894 
    3.26867e-6      5.08151 
    3.33816e-6      4.79572 
    3.38526e-6      4.57986 
    3.43302e-6       4.3395 
    3.48145e-6       4.0703 
    3.51821e-6      3.84655 
     3.5553e-6      3.60148 
    3.59292e-6      3.33066 
    3.63089e-6       3.0319 
    3.65633e-6      2.81628 
    3.68857e-6      2.52382 
    3.71445e-6      2.27296 
    3.74061e-6      2.00489 
    3.76685e-6      1.72206 
    3.79669e-6      1.38703 
    3.83477e-6     0.952842 
    3.84911e-6      0.79459 
    3.85733e-6      0.70733 
    3.86607e-6      0.61865 
    3.87336e-6     0.549102 
    3.87948e-6     0.494571 
    3.88415e-6     0.455903 
    3.88881e-6     0.420148 
    3.89231e-6     0.395506 
    3.89522e-6      0.37656 
    3.89872e-6     0.355926 
    3.90222e-6     0.337818 
    3.90484e-6     0.326058 
    3.90747e-6     0.315995 
    3.91038e-6     0.306969 
    3.91257e-6     0.301805 
    3.91476e-6     0.298115 
    3.91694e-6     0.295998 
    3.91876e-6     0.295509 
    3.92059e-6     0.296246 
    3.92277e-6     0.298845 
    3.92496e-6     0.303429 
    3.92715e-6      0.31013 
    3.92933e-6      0.31909 
    3.93079e-6      0.32639 
    3.93269e-6     0.337559 
    3.93458e-6     0.350726 
    3.93649e-6     0.366165 
    3.93841e-6     0.383886 
    3.94032e-6     0.404025 
    3.94223e-6     0.426727 
    3.94415e-6     0.452145 
    3.94595e-6     0.478745 
     3.9477e-6     0.507125 
    3.94945e-6     0.538192 
     3.9512e-6     0.572099 
    3.95295e-6     0.609006 
    3.95411e-6     0.635362 
    3.95615e-6     0.685038 
    3.95819e-6     0.739501 
    3.96023e-6     0.799077 
    3.96228e-6      0.86412 
    3.96432e-6     0.935015 
    3.96636e-6      1.01217 
     3.9684e-6      1.09605 
    3.97044e-6      1.18712 
    3.97248e-6      1.28592 
    3.97452e-6      1.39301 
    3.97656e-6      1.50904 
     3.9786e-6      1.63466 
    3.98035e-6      1.75055 
     3.9821e-6      1.87453 
    3.98385e-6      2.00717 
     3.9856e-6      2.14905 
    3.98735e-6       2.3008 
    3.98924e-6      2.47714 
    3.99121e-6      2.67441 
    3.99318e-6      2.88723 
    3.99514e-6      3.11687 
    3.99711e-6      3.36473 
    3.99915e-6      3.64262 
    4.00134e-6      3.96603 
    4.00353e-6      4.31847 
    4.00571e-6      4.70271 
     4.0079e-6      5.12185 
    4.01008e-6      5.57931 
    4.01227e-6      6.07886 
    4.01446e-6      6.62468 
    4.01664e-6      7.22136 
    4.01883e-6        7.874 
    4.02102e-6      8.58816 
     4.0232e-6      9.37001 
    4.02539e-6      10.2263 
    4.02758e-6      11.1643 
    4.02976e-6      12.1922 
    4.03195e-6      13.3188 
    4.03416e-6      14.5707 
    4.03644e-6      15.9823 
    4.03871e-6      17.5348 
    4.04099e-6      19.2416 
    4.04326e-6      21.1173 
    4.04553e-6      23.1773 
    4.04781e-6      25.4381 
    4.05008e-6       27.917 
    4.05236e-6      30.6321 
    4.05463e-6      33.6025 
     4.0569e-6      36.8476 
    4.05883e-6      39.8229 
    4.06058e-6      42.7213 
    4.06233e-6      45.8135 
    4.06466e-6      50.2541 
    4.06699e-6      55.0774 
    4.06932e-6      60.3044 
    4.07166e-6      65.9549 
    4.07399e-6      72.0474 
    4.07632e-6      78.5982 
    4.07865e-6      85.6213 
    4.08098e-6      93.1277 
    4.08332e-6      101.125 
    4.08565e-6      109.616 
    4.08798e-6      118.601 
    4.09148e-6      132.988 
    4.09498e-6      148.425 
    4.09848e-6      164.839 
    4.10314e-6      188.051 
    4.10897e-6      218.691 
    4.11993e-6      277.954 
    4.12623e-6      310.442 
    4.13043e-6       330.41 
    4.13462e-6      348.448 
    4.13882e-6      364.096 
    4.14232e-6      375.017 
    4.14582e-6      383.806 
    4.14988e-6      391.136 
    4.15258e-6      394.241 
    4.15608e-6      396.104 
    4.15725e-6      396.185 
    4.16074e-6      394.829 
    4.16471e-6      390.473 
    4.16867e-6      383.298 
    4.17217e-6      374.825 
    4.17567e-6      364.561 
    4.18034e-6      348.502 
      4.185e-6      330.285 
      4.192e-6      300.281 
    4.20599e-6      237.772 
    4.21065e-6      217.929 
    4.21532e-6      199.147 
    4.21998e-6      181.633 
    4.22348e-6      169.408 
    4.22698e-6      157.995 
    4.23048e-6      147.401 
    4.23398e-6      137.618 
    4.23747e-6      128.622 
    4.24097e-6       120.38 
    4.24433e-6      113.153 
    4.24739e-6      107.094 
    4.25147e-6      99.7574 
    4.25555e-6      93.1985 
    4.25963e-6      87.3389 
      4.264e-6      81.7514 
    4.26838e-6       76.794 
    4.27275e-6      72.3874 
    4.27712e-6      68.4606 
    4.28149e-6      64.9506 
    4.28587e-6      61.8022 
    4.29024e-6      58.9676 
    4.29461e-6      56.4058 
    4.30044e-6       53.354 
    4.30627e-6      50.6553 
     4.3121e-6      48.2532 
    4.31794e-6      46.1021 
    4.32377e-6      44.1649 
    4.33251e-6      41.5956 
    4.34126e-6      39.3602 
       4.35e-6      37.3979 
    4.35875e-6      35.6617 
    4.36749e-6      34.1149 
    4.37624e-6      32.7283 
     4.3879e-6      31.0889 
    4.39951e-6      29.6553 
    4.41112e-6      28.3859 
    4.42659e-6      26.9038 
    4.44207e-6      25.6188 
    4.45765e-6       24.487 
    4.47335e-6      23.4829 
    4.48904e-6      22.5922 
    4.51259e-6      21.4304 
    4.53646e-6      20.4245 
    4.56033e-6      19.5567 
    4.58432e-6      18.7974 
    4.60853e-6      18.1245 
    4.64081e-6      17.3462 
    4.67355e-6      16.6686 
    4.70629e-6      16.0812 
    4.73948e-6      15.5602 
    4.78952e-6      14.8886 
    4.84002e-6      14.3188 
    4.89123e-6      13.8264 
    4.94292e-6      13.3985 
    5.01266e-6      12.9073 
    5.08338e-6      12.4875 
     5.1551e-6      12.1239 
    5.26445e-6      11.6607 
    5.37638e-6      11.2717 
    5.49042e-6      10.9398 
    5.64643e-6      10.5627 
    5.80688e-6      10.2424 
    6.01401e-6      9.90005 
    6.27216e-6      9.55099 
    6.58721e-6      9.20239 
    6.96688e-6      8.85521 
     7.4724e-6      8.46876 
    8.12767e-6      8.04198 
     9.0916e-6       7.4908 
    1.15365e-5      6.17565 
    1.24608e-5       5.6413 
    1.31791e-5      5.19268 
     1.3841e-5      4.74361 
    1.43348e-5      4.38069 
    1.48454e-5      3.97491 
    1.52672e-5      3.61311 
    1.55918e-5      3.31585 
    1.59225e-5      2.99436 
    1.62611e-5      2.64473 
    1.65482e-5      2.33118 
    1.68403e-5      1.99646 
    1.71381e-5       1.6401 
     1.7502e-5      1.19003 
    1.77799e-5     0.845139 
    1.79252e-5     0.669456 
    1.80253e-5     0.552388 
    1.81025e-5     0.465211 
    1.81654e-5       0.3969 
    1.82157e-5     0.344369 
    1.82645e-5     0.295569 
    1.83038e-5     0.257927 
    1.83431e-5     0.222009 
    1.83777e-5     0.191979 
    1.84052e-5     0.169244 
    1.84328e-5     0.147614 
    1.84548e-5     0.131161 
    1.84784e-5     0.114428 
    1.84981e-5     0.101234 
    1.85177e-5    0.0887602 
    1.85366e-5    0.0774971 
    1.85523e-5    0.0686697 
    1.85649e-5    0.0619884 
    1.85791e-5    0.0548912 
    1.85901e-5    0.0496883 
    1.86011e-5    0.0447715 
    1.86121e-5    0.0401492 
      1.862e-5    0.0370324 
    1.86278e-5    0.0340732 
    1.86357e-5    0.0312749 
    1.86436e-5    0.0286407 
    1.86498e-5    0.0266537 
    1.86561e-5    0.0247757 
    1.86624e-5    0.0230083 
    1.86687e-5    0.0213534 
    1.86758e-5    0.0196284 
    1.86829e-5    0.0180507 
      1.869e-5     0.016623 
    1.86947e-5    0.0157559 
    1.86994e-5    0.0149575 
    1.87041e-5    0.0142287 
      1.871e-5    0.0134167 
    1.87153e-5    0.0127814 
    1.87206e-5    0.0122377 
    1.87259e-5     0.011787 
    1.87312e-5    0.0114305 
    1.87348e-5    0.0112458 
    1.87387e-5    0.0110908 
    1.87427e-5    0.0109892 
    1.87476e-5    0.0109382 
    1.87481e-5    0.0109377 
    1.87529e-5    0.0109789 
     1.8757e-5    0.0110804 
    1.87605e-5    0.0112164 
    1.87641e-5    0.0113982 
    1.87676e-5    0.0116261 
    1.87729e-5    0.0120555 
    1.87782e-5    0.0125912 
    1.87835e-5    0.0132345 
    1.87883e-5     0.013898 
     1.8793e-5    0.0146488 
    1.87979e-5    0.0155249 
    1.88032e-5    0.0165801 
    1.88085e-5    0.0177503 
    1.88142e-5    0.0191368 
    1.88201e-5    0.0207145 
     1.8826e-5    0.0224403 
    1.88307e-5    0.0239291 
    1.88378e-5    0.0263452 
    1.88449e-5    0.0289845 
    1.88512e-5    0.0315212 
    1.88575e-5    0.0342404 
    1.88638e-5    0.0371452 
    1.88701e-5    0.0402384 
    1.88779e-5    0.0443749 
    1.88858e-5    0.0488169 
    1.88937e-5    0.0535709 
    1.89015e-5     0.058643 
    1.89094e-5    0.0640402 
    1.89172e-5    0.0697688 
    1.89251e-5     0.075836 
     1.8933e-5    0.0822484 
    1.89424e-5    0.0904096 
    1.89519e-5     0.099091 
    1.89613e-5     0.108306 
    1.89707e-5     0.118067 
    1.89802e-5     0.128389 
    1.89928e-5     0.143047 
    1.90053e-5      0.15876 
    1.90179e-5     0.175564 
    1.90289e-5     0.191191 
    1.90407e-5     0.208921 
    1.90525e-5     0.227703 
    1.90643e-5     0.247572 
    1.90801e-5     0.275813 
    1.90958e-5     0.306132 
    1.91115e-5      0.33862 
    1.91272e-5     0.373369 
     1.9139e-5     0.400975 
    1.91563e-5     0.443956 
    1.91705e-5     0.481416 
    1.91894e-5     0.534725 
    1.92082e-5     0.592064 
    1.92279e-5     0.656311 
    1.92444e-5     0.714029 
    1.92609e-5     0.775343 
    1.92775e-5     0.840425 
     1.9294e-5     0.909456 
    1.93105e-5     0.982624 
    1.93294e-5      1.07157 
    1.93482e-5      1.16651 
    1.93671e-5      1.26777 
     1.9386e-5      1.37571 
    1.94049e-5      1.49073 
    1.94237e-5      1.61323 
    1.94426e-5      1.74365 
    1.94615e-5      1.88245 
    1.94804e-5      2.03014 
    1.94992e-5      2.18723 
    1.95189e-5      2.36147 
    1.95401e-5      2.56258 
    1.95614e-5        2.778 
    1.95826e-5      3.00873 
    1.96038e-5      3.25585 
    1.96251e-5      3.52052 
    1.96487e-5      3.83675 
    1.96723e-5      4.17812 
    1.96959e-5      4.54674 
    1.97195e-5       4.9449 
    1.97431e-5      5.37512 
    1.97666e-5      5.84017 
    1.97902e-5      6.34312 
    1.98138e-5      6.88733 
    1.98374e-5      7.47655 
     1.9861e-5      8.11489 
    1.98846e-5      8.80695 
    1.99082e-5      9.55782 
    1.99318e-5      10.3732 
    1.99554e-5      11.2595 
     1.9979e-5      12.2238 
    2.00026e-5      13.2744 
    2.00262e-5      14.4203 
    2.00498e-5       15.672 
    2.00734e-5      17.0411 
     2.0097e-5      18.5409 
    2.01206e-5      20.1863 
    2.01426e-5      21.8687 
    2.01638e-5      23.6403 
    2.01851e-5      25.5749 
    2.02063e-5       27.691 
    2.02275e-5      30.0097 
    2.02488e-5      32.5553 
      2.027e-5      35.3557 
    2.02912e-5      38.4429 
    2.03125e-5      41.8543 
    2.03266e-5      44.3297 
    2.03408e-5       46.983 
    2.03549e-5      49.8304 
    2.03738e-5      53.9606 
    2.03927e-5      58.5173 
    2.04116e-5       63.558 
    2.04304e-5      69.1497 
     2.0443e-5       73.222 
    2.04556e-5      77.6009 
    2.04726e-5      84.0529 
    2.04896e-5      91.2046 
    2.05009e-5      96.4101 
    2.05122e-5      102.006 
    2.05236e-5      108.029 
    2.05349e-5      114.525 
    2.05462e-5      121.543 
    2.05613e-5      131.809 
    2.05714e-5      139.299 
    2.05814e-5      147.367 
    2.05915e-5      156.074 
    2.06016e-5      165.488 
    2.06116e-5      175.688 
    2.06217e-5      186.764 
    2.06311e-5      198.035 
      2.064e-5      209.418 
    2.06488e-5      221.727 
    2.06576e-5      235.068 
    2.06664e-5      249.562 
    2.06752e-5      265.348 
     2.0684e-5      282.589 
    2.06928e-5      301.474 
     2.0701e-5      320.676 
    2.07085e-5      340.005 
    2.07161e-5      361.068 
    2.07236e-5      384.081 
    2.07312e-5      409.294 
    2.07387e-5      436.994 
    2.07463e-5      467.514 
    2.07538e-5      501.236 
    2.07611e-5      536.966 
     2.0768e-5      574.681 
    2.07749e-5      616.304 
    2.07818e-5      662.331 
    2.07888e-5       713.32 
    2.07957e-5      769.896 
    2.08009e-5      816.408 
    2.08061e-5      866.767 
    2.08113e-5      921.318 
    2.08179e-5      997.766 
    2.08228e-5      1059.55 
    2.08277e-5      1126.21 
    2.08326e-5      1198.09 
    2.08375e-5      1275.59 
    2.08424e-5      1359.08 
    2.08473e-5      1448.98 
    2.08522e-5      1545.68 
    2.08578e-5      1663.46 
    2.08633e-5      1790.99 
    2.08689e-5      1928.85 
    2.08744e-5      2077.55 
    2.08794e-5      2222.58 
    2.08845e-5      2377.33 
    2.08895e-5      2542.08 
     2.0897e-5      2808.48 
    2.09046e-5      3098.43 
    2.09121e-5      3412.03 
    2.09197e-5       3748.9 
    2.09272e-5      4108.12 
    2.09373e-5      4619.04 
    2.09474e-5       5161.3 
    2.09625e-5      6015.92 
    2.09851e-5      7316.77 
    2.09952e-5      7867.45 
    2.10053e-5      8379.93 
    2.10153e-5      8838.98 
    2.10249e-5      9212.48 
    2.10321e-5      9445.77 
    2.10395e-5      9640.21 
     2.1047e-5      9785.29 
    2.10546e-5      9874.55 
    2.10629e-5      9906.39 
    2.10697e-5      9880.37 
    2.10772e-5      9797.23 
    2.10833e-5      9690.84 
    2.10903e-5      9524.03 
    2.10989e-5      9263.93 
    2.11089e-5      8885.92 
     2.1119e-5      8442.39 
    2.11291e-5      7947.69 
    2.11442e-5      7142.38 
    2.11719e-5      5613.37 
    2.11845e-5      4950.53 
    2.11945e-5      4451.31 
    2.12021e-5      4098.83 
    2.12096e-5      3766.99 
    2.12172e-5      3456.79 
    2.12247e-5      3168.71 
    2.12323e-5      2902.74 
    2.12398e-5      2658.51 
    2.12474e-5      2435.31 
    2.12549e-5      2232.19 
    2.12606e-5      2092.34 
    2.12662e-5      1962.63 
    2.12719e-5       1842.5 
    2.12776e-5      1731.38 
    2.12832e-5      1628.71 
    2.12886e-5      1537.96 
    2.12957e-5      1429.75 
    2.13027e-5      1331.89 
    2.13098e-5      1243.37 
    2.13168e-5      1163.28 
    2.13239e-5      1090.77 
    2.13309e-5      1025.04 
     2.1338e-5      965.372 
    2.13465e-5      900.143 
    2.13541e-5      848.394 
    2.13616e-5      801.432 
    2.13692e-5      758.703 
    2.13767e-5      719.723 
    2.13868e-5      672.854 
    2.13969e-5      631.034 
    2.14069e-5      593.543 
     2.1417e-5      559.777 
    2.14283e-5      525.621 
    2.14409e-5      491.739 
    2.14535e-5      461.501 
    2.14661e-5      434.372 
    2.14787e-5      409.911 
    2.14912e-5      387.759 
    2.15038e-5      367.616 
    2.15164e-5      349.233 
    2.15302e-5      330.793 
    2.15454e-5      312.538 
    2.15605e-5      295.977 
    2.15755e-5      280.896 
    2.15907e-5      267.115 
    2.16058e-5      254.482 
    2.16284e-5      237.403 
    2.16496e-5      223.149 
     2.1668e-5      211.977 
    2.16926e-5      198.552 
    2.17171e-5      186.575 
    2.17417e-5      175.836 
    2.17662e-5      166.164 
    2.17907e-5      157.415 
    2.18153e-5      149.471 
    2.18398e-5      142.231 
    2.18713e-5      133.845 
    2.19027e-5       126.33 
    2.19342e-5      119.565 
    2.19656e-5      113.448 
    2.19971e-5      107.896 
    2.20286e-5      102.838 
    2.20758e-5        96.05 
    2.21229e-5      90.0765 
    2.21701e-5      84.7862 
    2.22173e-5      80.0739 
    2.22645e-5      75.8543 
    2.23117e-5      72.0577 
    2.23629e-5      68.3533 
     2.2422e-5      64.5312 
    2.24811e-5      61.1268 
    2.25402e-5      58.0763 
    2.25993e-5      55.3282 
    2.26584e-5      52.8416 
    2.27383e-5      49.8369 
    2.28182e-5      47.1813 
    2.28981e-5      44.8196 
     2.2978e-5      42.7074 
    2.30591e-5      40.7829 
    2.31401e-5      39.0468 
    2.32617e-5      36.7413 
    2.33844e-5      34.7167 
    2.35077e-5      32.9344 
     2.3631e-5      31.3612 
     2.3756e-5      29.9449 
     2.3881e-5      28.6825 
    2.40489e-5      27.1861 
    2.42179e-5      25.8688 
    2.43882e-5      24.7024 
    2.45596e-5      23.6629 
    2.47322e-5      22.7308 
     2.4993e-5      21.5025 
    2.52575e-5      20.4358 
    2.55244e-5      19.5047 
    2.57939e-5       18.685 
    2.60658e-5      17.9574 
    2.64336e-5       17.103 
    2.68065e-5      16.3586 
    2.71847e-5      15.7046 
    2.75682e-5      15.1226 
    2.79572e-5       14.602 
    2.85516e-5      13.9154 
    2.91572e-5      13.3208 
    2.97772e-5      12.7976 
    3.04088e-5      12.3347 
    3.12729e-5      11.7902 
    3.21615e-5       11.313 
    3.33087e-5        10.79 
    3.44951e-5      10.3324 
    3.57256e-5      9.92344 
    3.72591e-5      9.48427 
    3.91306e-5      9.02683 
    4.10981e-5      8.61379 
    4.34669e-5      8.18323 
    4.62943e-5      7.73761 
     4.9308e-5      7.32034 
    5.28858e-5      6.87892 
    5.71205e-5       6.4084 
    6.30061e-5      5.80961 
    7.55924e-5      4.59062 
    7.99494e-5      4.14356 
    8.33812e-5      3.76559 
    8.63554e-5      3.41068 
    8.88092e-5       3.0923 
     9.0693e-5      2.82811 
    9.24933e-5      2.55668 
    9.37983e-5       2.3462 
    9.51216e-5      2.12008 
    9.63729e-5      1.89288 
    9.75724e-5      1.66252 
    9.84941e-5      1.47657 
    9.95693e-5      1.25026 
   0.000100645      1.01504 
   0.000102718     0.550079 
   0.000103198     0.445118 
   0.000103582     0.363742 
    0.00010387     0.304841 
   0.000104101     0.259547 
   0.000104293     0.223289 
   0.000104485     0.188597 
   0.000104629     0.163745 
   0.000104749     0.143905 
   0.000104869     0.124944 
   0.000104984     0.107643 
    0.00010508    0.0939535 
   0.000105157    0.0835105 
   0.000105234    0.0735476 
   0.000105306    0.0646687 
   0.000105378    0.0562614 
   0.000105443    0.0491191 
   0.000105503    0.0428816 
   0.000105551    0.0381623 
   0.000105599    0.0336929 
   0.000105641    0.0299935 
   0.000105683     0.026498 
   0.000105716    0.0238524 
